#t	omega	theta
0	0

25.1327	-0.00517975
25.3003	-0.00329997
25.4678	-0.0014324
25.6354	0.000372749
25.8029	0.0020697
25.9705	0.00361811
26.1381	0.00498386
26.3056	0.00613966
26.4732	0.00706545
26.6407	0.00774849
26.8083	0.00818336
26.9758	0.0083717
27.1434	0.00832176
27.3109	0.00804785
27.4785	0.0075696
27.646	0.00691113
27.8136	0.00610016
27.9811	0.00516707
28.1487	0.00414391
28.3162	0.00306344
28.4838	0.0019582
28.6513	0.000859659
28.8189	-0.000202637
28.9864	-0.00120172
29.154	-0.00211379
29.3215	-0.00291875
29.4891	-0.00360049
29.6566	-0.00414711
29.8242	-0.00455108
29.9917	-0.00480914
30.1593	-0.00492217
30.3268	-0.00489499
30.4944	-0.00473595
30.6619	-0.00445653
30.8295	-0.00407089
30.997	-0.00359531
31.1646	-0.00304762
31.3322	-0.00244666
31.4997	-0.0018117
31.6673	-0.00116187
31.8348	-0.000515686
32.0024	0.000109449
32.1699	0.000697648
32.3375	0.0012349
32.505	0.00170932
32.6726	0.00211142
32.8401	0.00243416
33.0077	0.00267307
33.1752	0.00282618
33.3428	0.002894
33.5103	0.00287929
33.6779	0.00278696
33.8454	0.00262372
34.013	0.00239787
34.1805	0.00211898
34.3481	0.00179751
34.5156	0.00144454
34.6832	0.00107138
34.8507	0.000689315
35.0183	0.000309221
35.1858	-5.86516e-05
35.3534	-0.000404946
35.5209	-0.000721401
35.6885	-0.00100102
35.856	-0.00123818
36.0236	-0.00142873
36.1911	-0.00157001
36.3587	-0.00166085
36.5263	-0.00170152
36.6938	-0.00169363
36.8614	-0.00164003
37.0289	-0.00154466
37.1965	-0.0014124
37.364	-0.00124885
37.5316	-0.00106017
37.6991	-0.00085285
37.8667	-0.000633561
38.0342	-0.000408925
38.2018	-0.00018535
38.3693	3.11309e-05
38.5369	0.000235005
38.7044	0.000421405
38.872	0.000586201
39.0395	0.000726079
39.2071	0.00083858
39.3746	0.000922128
39.5422	0.000976019
39.7097	0.0010004
39.8773	0.000996198
40.0448	0.000965091
40.2124	0.000909385
40.3799	0.000831932
40.5475	0.000736024
40.715	0.000625276
40.8826	0.00050351
41.0501	0.000374643
41.2177	0.000242569
41.3852	0.000111061
41.5528	-1.63296e-05
41.7204	-0.000136356
41.8879	-0.000246149
42.0555	-0.000343274
42.223	-0.000425772
42.3906	-0.000492192
42.5581	-0.000541596
42.7257	-0.000573564
42.8932	-0.000588172
43.0608	-0.000585964
43.2283	-0.000567914
43.3959	-0.000535375
43.5634	-0.000490019
43.731	-0.000433779
43.8985	-0.000368777
44.0661	-0.000297259
44.2336	-0.000221529
44.4012	-0.000143878
44.5687	-6.65247e-05
44.7363	8.43917e-06
44.9038	7.91016e-05
45.0714	0.000143771
45.2389	0.000201012
45.4065	0.000249668
45.574	0.000288881
45.7416	0.000318094
45.9091	0.000337056
46.0767	0.000345807
46.2442	0.000344662
46.4118	0.000334191
46.5793	0.000315185
46.7469	0.000288626
46.9145	0.000255647
47.082	0.000217495
47.2496	0.000175491
47.4171	0.000130988
47.5847	8.53338e-05
47.7522	3.98349e-05
47.9198	-4.27788e-06
48.0873	-4.58782e-05
48.2549	-8.39692e-05
48.4224	-0.000117704
48.59	-0.0001464
48.7575	-0.00016955
48.9251	-0.000186824
49.0926	-0.00019807
49.2602	-0.00020331
49.4277	-0.000202727
49.5953	-0.000196654
49.7628	-0.000185554
49.9304	-0.000170001
50.0979	-0.000150663
50.2655	-0.000128271
50.433	-0.000103601
50.6006	-7.74491e-05
50.7681	-5.06077e-05
50.9357	-2.38456e-05
51.1032	2.11257e-06
51.2708	2.66033e-05
51.4383	4.90391e-05
51.6059	6.89204e-05
51.7734	8.58446e-05
51.941	9.95111e-05
52.1086	0.000109725
52.2761	0.000116394
52.4437	0.000119531
52.6112	0.000119242
52.7788	0.00011572
52.9463	0.000109237
53.1139	0.000100131
53.2814	8.87912e-05
53.449	7.56491e-05
53.6165	6.116e-05
53.7841	4.57918e-05
53.9516	3.0011e-05
54.1192	1.42698e-05
54.2867	-1.00509e-06
54.4543	-1.5423e-05
54.6218	-2.86377e-05
54.7894	-4.03545e-05
54.9569	-5.03357e-05
55.1245	-5.84036e-05
55.292	-6.44424e-05
55.4596	-6.83977e-05
55.6271	-7.02751e-05
55.7947	-7.01362e-05
55.9622	-6.80943e-05
56.1298	-6.43084e-05
56.2973	-5.89763e-05
56.4649	-5.23274e-05
56.6324	-4.46141e-05
56.8	-3.61045e-05
56.9675	-2.70736e-05
57.1351	-1.77957e-05
57.3027	-8.53697e-06
57.4702	4.51431e-07
57.6378	8.93933e-06
57.8053	1.67227e-05
57.9729	2.36278e-05
58.1404	2.95142e-05
58.308	3.4277e-05
58.4755	3.78473e-05
58.6431	4.01928e-05
58.8106	4.1316e-05
58.9782	4.12527e-05
59.1457	4.00691e-05
59.3133	3.78584e-05
59.4808	3.47364e-05
59.6484	3.08378e-05
59.8159	2.63109e-05
59.9835	2.13131e-05
60.151	1.60063e-05
60.3186	1.05516e-05
60.4861	5.10581e-06
60.6537	-1.83296e-07
60.8212	-5.18013e-06
60.9888	-9.76447e-06
61.1563	-1.38338e-05
61.3239	-1.73053e-05
61.4914	-2.01168e-05
61.659	-2.22277e-05
61.8265	-2.36184e-05
61.9941	-2.42902e-05
62.1616	-2.42638e-05
62.3292	-2.3578e-05
62.4967	-2.22871e-05
62.6643	-2.04592e-05
62.8319	-1.81733e-05
62.9994	-1.55165e-05
63.167	-1.25813e-05
63.3345	-9.46282e-06
63.5021	-6.25595e-06
63.6696	-3.05286e-06
63.8372	5.94267e-08
64.0047	3.00105e-06
64.1723	5.70115e-06
64.3398	8.0993e-06
64.5074	1.01466e-05
64.6749	1.18062e-05
64.8425	1.30542e-05
65.01	1.38787e-05
65.1776	1.42804e-05
65.3451	1.42713e-05
65.5127	1.38739e-05
65.6802	1.31202e-05
65.8478	1.205e-05
66.0153	1.07097e-05
66.1829	9.15049e-06
66.3504	7.42668e-06
66.518	5.59419e-06
66.6855	3.70885e-06
66.8531	1.82487e-06
67.0206	-6.48373e-09
67.1882	-1.7382e-06
67.3557	-3.3285e-06
67.5233	-4.74176e-06
67.6908	-5.9491e-06
67.8584	-6.9288e-06
68.026	-7.66655e-06
68.1935	-8.15539e-06
68.3611	-8.39553e-06
68.5286	-8.39392e-06
68.6962	-8.16375e-06
68.8637	-7.7237e-06
69.0313	-7.09716e-06
69.1988	-6.31131e-06
69.3664	-5.39623e-06
69.5339	-4.38386e-06
69.7015	-3.30705e-06
69.869	-2.19865e-06
70.0366	-1.09055e-06
70.2041	-1.29384e-08
70.3717	1.0065e-06
70.5392	1.94315e-06
70.7068	2.776e-06
70.8743	3.48799e-06
71.0419	4.06629e-06
71.2094	4.50242e-06
71.377	4.79222e-06
71.5445	4.93573e-06
71.7121	4.937e-06
71.8796	4.80371e-06
72.0472	4.54681e-06
72.2147	4.18001e-06
72.3823	3.71926e-06
72.5498	3.18223e-06
72.7174	2.58768e-06
72.8849	1.95493e-06
73.0525	1.3033e-06
73.2201	6.51558e-07
73.3876	1.74671e-08
73.5552	-5.8266e-07
73.7227	-1.13432e-06
73.8903	-1.62512e-06
74.0578	-2.04499e-06
74.2254	-2.38635e-06
74.3929	-2.64416e-06
74.5605	-2.81595e-06
74.728	-2.9017e-06
74.8956	-2.90374e-06
75.0631	-2.82658e-06
75.2307	-2.67661e-06
75.3982	-2.46188e-06
75.5658	-2.19174e-06
75.7333	-1.87658e-06
75.9009	-1.52741e-06
76.0684	-1.1556e-06
76.236	-7.72512e-07
76.4035	-3.89183e-07
76.5711	-1.60737e-08
76.7386	3.37209e-07
76.9062	6.62117e-07
77.0737	9.51342e-07
77.2413	1.19894e-06
77.4088	1.40044e-06
77.5764	1.55284e-06
77.7439	1.65466e-06
77.9115	1.70588e-06
78.079	1.70785e-06
78.2466	1.66319e-06
78.4142	1.57565e-06
78.5817	1.44995e-06
78.7493	1.29157e-06
78.9168	1.10661e-06
79.0844	9.0156e-07
79.2519	6.83083e-07
79.4195	4.57866e-07
79.587	2.32409e-07
79.7546	1.28668e-08
79.9221	-1.95102e-07
80.0897	-3.8646e-07
80.2572	-5.56898e-07
80.4248	-7.02908e-07
80.5923	-8.21841e-07
80.7599	-9.11926e-07
80.9274	-9.72278e-07
81.095	-1.00287e-06
81.2625	-1.00448e-06
81.4301	-9.78635e-07
81.5976	-9.2754e-07
81.7652	-8.53953e-07
81.9327	-7.61101e-07
82.1003	-6.5256e-07
82.2678	-5.32139e-07
82.4354	-4.03762e-07
82.6029	-2.7136e-07
82.7705	-1.38757e-07
82.938	-9.57599e-09
83.1056	1.12849e-07
83.2731	2.25551e-07
83.4407	3.25987e-07
83.6083	4.12088e-07
83.7758	4.82287e-07
83.9434	5.35536e-07
84.1109	5.71305e-07
84.2785	5.89568e-07
84.446	5.90779e-07
84.6136	5.75832e-07
84.7811	5.46011e-07
84.9487	5.02936e-07
85.1162	4.485e-07
85.2838	3.84804e-07
85.4513	3.14085e-07
85.6189	2.38652e-07
85.7864	1.60814e-07
85.954	8.28243e-08
86.1215	6.81388e-09
86.2891	-6.52537e-08
86.4566	-1.31629e-07
86.6242	-1.90814e-07
86.7917	-2.41587e-07
86.9593	-2.83021e-07
87.1268	-3.14495e-07
87.2944	-3.35693e-07
87.4619	-3.46594e-07
87.6295	-3.47463e-07
87.797	-3.38819e-07
87.9646	-3.21416e-07
88.1321	-2.96202e-07
88.2997	-2.64289e-07
88.4672	-2.2691e-07
88.6348	-1.8538e-07
88.8024	-1.41056e-07
88.9699	-9.5297e-08
89.1375	-4.94275e-08
89.305	-4.70295e-09
89.4726	3.77205e-08
89.6401	7.68122e-08
89.8077	1.11688e-07
89.9752	1.41628e-07
90.1428	1.66083e-07
90.3103	1.84686e-07
90.4779	1.97248e-07
90.6454	2.03754e-07
90.813	2.04356e-07
90.9805	1.9936e-07
91.1481	1.89204e-07
91.3156	1.74445e-07
91.4832	1.55736e-07
91.6507	1.33802e-07
91.8183	1.09413e-07
91.9858	8.33691e-08
92.1534	5.64686e-08
92.3209	2.94909e-08
92.4885	3.1752e-09
92.656	-2.17977e-08
92.8236	-4.48205e-08
92.9911	-6.53718e-08
93.1587	-8.30262e-08
93.3262	-9.74601e-08
93.4938	-1.08455e-07
93.6613	-1.15899e-07
93.8289	-1.19781e-07
93.9965	-1.20189e-07
94.164	-1.17301e-07
94.3316	-1.11375e-07
94.4991	-1.02737e-07
94.6667	-9.17693e-08
94.8342	-7.88976e-08
95.0018	-6.45758e-08
95.1693	-4.92728e-08
95.3369	-3.34587e-08
95.5044	-1.75922e-08
95.672	-2.10825e-09
95.8395	1.25921e-08
96.0071	2.61511e-08
96.1746	3.82612e-08
96.3422	4.86714e-08
96.5097	5.71903e-08
96.6773	6.36886e-08
96.8448	6.80991e-08
97.0124	7.0415e-08
97.1799	7.0687e-08
97.3475	6.90186e-08
97.515	6.55609e-08
97.6826	6.0505e-08
97.8501	5.40756e-08
98.0177	4.65223e-08
98.1852	3.8112e-08
98.3528	2.91203e-08
98.5203	1.98238e-08
98.6879	1.04922e-08
98.8554	1.38163e-09
99.023	-7.27175e-09
99.1906	-1.5257e-08
99.3581	-2.2393e-08
99.5257	-2.85314e-08
99.6932	-3.35592e-08
99.8608	-3.73998e-08
100.028	-4.00129e-08
100.196	-4.13942e-08
100.363	-4.15729e-08
100.531	-4.06094e-08
100.699	-3.8592e-08
100.866	-3.5633e-08
101.034	-3.1864e-08
101.201	-2.74317e-08
101.369	-2.2493e-08
101.536	-1.72097e-08
101.704	-1.17446e-08
101.871	-6.25647e-09
102.039	-8.95957e-10
102.206	4.19781e-09
102.374	8.90057e-09
102.542	1.31054e-08
102.709	1.67249e-08
102.877	1.96923e-08
103.044	2.1962e-08
103.212	2.35102e-08
103.379	2.43339e-08
103.547	2.44499e-08
103.714	2.38937e-08
103.882	2.27168e-08
104.05	2.0985e-08
104.217	1.87757e-08
104.385	1.61748e-08
104.552	1.32747e-08
104.72	1.01704e-08
104.887	6.95774e-09
105.055	3.73002e-09
105.222	5.76002e-10
105.39	-2.4224e-09
105.558	-5.19196e-09
105.725	-7.66966e-09
105.893	-9.80386e-09
106.06	-1.15551e-08
106.228	-1.28964e-08
106.395	-1.38136e-08
106.563	-1.43047e-08
106.73	-1.43795e-08
106.898	-1.40585e-08
107.065	-1.33719e-08
107.233	-1.23584e-08
107.401	-1.10633e-08
107.568	-9.53722e-09
107.736	-7.83419e-09
107.903	-6.01026e-09
108.071	-4.12167e-09
108.238	-2.22338e-09
108.406	-3.67633e-10
108.573	1.39734e-09
108.741	3.02838e-09
108.909	4.48834e-09
109.076	5.74674e-09
109.244	6.78024e-09
109.411	7.57292e-09
109.579	8.11626e-09
109.746	8.409e-09
109.914	8.45677e-09
110.081	8.27158e-09
110.249	7.87114e-09
110.417	7.27803e-09
110.584	6.51888e-09
110.752	5.62339e-09
110.919	4.62335e-09
111.087	3.55169e-09
111.254	2.44148e-09
111.422	1.32507e-09
111.589	2.33203e-10
111.757	-8.05715e-10
111.924	-1.76626e-09
112.092	-2.62651e-09
112.26	-3.3685e-09
112.427	-3.97843e-09
112.595	-4.44685e-09
112.762	-4.7687e-09
112.93	-4.94317e-09
113.097	-4.97351e-09
113.265	-4.86672e-09
113.432	-4.63317e-09
113.6	-4.28608e-09
113.768	-3.8411e-09
113.935	-3.31565e-09
114.103	-2.72843e-09
114.27	-2.09877e-09
114.438	-1.44614e-09
114.605	-7.89569e-10
114.773	-1.47148e-10
114.94	4.64388e-10
115.108	1.03006e-09
115.276	1.53695e-09
115.443	1.97444e-09
115.611	2.33438e-09
115.778	2.61118e-09
115.946	2.80183e-09
116.113	2.90579e-09
116.281	2.92495e-09
116.448	2.8634e-09
116.616	2.72719e-09
116.783	2.52409e-09
116.951	2.26326e-09
117.119	1.95495e-09
117.286	1.61013e-09
117.454	1.24018e-09
117.621	8.56536e-10
117.789	4.704e-10
117.956	9.24235e-11
118.124	-2.67541e-10
118.291	-6.00667e-10
118.459	-8.99337e-10
118.627	-1.15729e-09
118.794	-1.3697e-09
118.962	-1.53327e-09
119.129	-1.64618e-09
119.297	-1.70812e-09
119.464	-1.72017e-09
119.632	-1.6847e-09
119.799	-1.60527e-09
119.967	-1.48643e-09
120.135	-1.33355e-09
120.302	-1.15265e-09
120.47	-9.5017e-10
120.637	-7.32808e-10
120.805	-5.07291e-10
120.972	-2.80203e-10
121.14	-5.78174e-11
121.307	1.54065e-10
121.475	3.50242e-10
121.642	5.26224e-10
121.81	6.78312e-10
121.978	8.03663e-10
122.145	9.00313e-10
122.313	9.67189e-10
122.48	1.00409e-09
122.648	1.01163e-09
122.815	9.91204e-10
122.983	9.44887e-10
123.15	8.75348e-10
123.318	7.85741e-10
123.486	6.79597e-10
123.653	5.60706e-10
123.821	4.32998e-10
123.988	3.00432e-10
124.156	1.66882e-10
124.323	3.60402e-11
124.491	-8.86769e-11
124.658	-2.04205e-10
124.826	-3.07895e-10
124.993	-3.97566e-10
125.161	-4.71537e-10
125.329	-5.28646e-10
125.496	-5.68252e-10
125.664	-5.90228e-10
125.831	-5.94932e-10
125.999	-5.83175e-10
126.166	-5.5617e-10
126.334	-5.15482e-10
126.501	-4.62962e-10
126.669	-4.00684e-10
126.837	-3.30873e-10
127.004	-2.55841e-10
127.172	-1.77915e-10
127.339	-9.93754e-11
127.507	-2.23943e-11
127.674	5.10156e-11
127.842	1.19049e-10
128.009	1.80144e-10
128.177	2.33013e-10
128.345	2.76664e-10
128.512	3.10407e-10
128.68	3.33862e-10
128.847	3.46949e-10
129.015	3.49873e-10
129.182	3.43109e-10
129.35	3.27365e-10
129.517	3.03559e-10
129.685	2.72777e-10
129.852	2.36237e-10
130.02	1.95246e-10
130.188	1.51162e-10
130.355	1.05356e-10
130.523	5.91672e-11
130.69	1.38757e-11
130.858	-2.93339e-11
131.025	-6.93975e-11
131.193	-1.05395e-10
131.36	-1.36566e-10
131.528	-1.62324e-10
131.696	-1.82261e-10
131.863	-1.9615e-10
132.031	-2.03942e-10
132.198	-2.05755e-10
132.366	-2.01865e-10
132.533	-1.92688e-10
132.701	-1.7876e-10
132.868	-1.60719e-10
133.036	-1.3928e-10
133.204	-1.15211e-10
133.371	-8.93112e-11
133.539	-6.23852e-11
133.706	-3.52224e-11
133.874	-8.57542e-12
134.041	1.68578e-11
134.209	4.04505e-11
134.376	6.16599e-11
134.544	8.00376e-11
134.711	9.5237e-11
134.879	1.07017e-10
135.047	1.15241e-10
135.214	1.1988e-10
135.382	1.21001e-10
135.549	1.18765e-10
135.717	1.13416e-10
135.884	1.05267e-10
136.052	9.46937e-11
136.219	8.21151e-11
136.387	6.79828e-11
136.555	5.27663e-11
136.722	3.69389e-11
136.89	2.09649e-11
137.057	5.28748e-12
137.225	-9.6825e-12
137.392	-2.35756e-11
137.56	-3.6072e-11
137.727	-4.6907e-11
137.895	-5.58757e-11
138.063	-6.28353e-11
138.23	-6.77052e-11
138.398	-7.04663e-11
138.565	-7.11579e-11
138.733	-6.98736e-11
138.9	-6.67556e-11
139.068	-6.19886e-11
139.235	-5.57919e-11
139.403	-4.8412e-11
139.57	-4.01142e-11
139.738	-3.11743e-11
139.906	-2.18708e-11
140.073	-1.24769e-11
140.241	-3.2533e-12
140.408	5.55794e-12
140.576	1.37392e-11
140.743	2.11019e-11
140.911	2.74898e-11
141.078	3.27819e-11
141.246	3.68937e-11
141.414	3.97771e-11
141.581	4.14203e-11
141.749	4.1846e-11
141.916	4.11087e-11
142.084	3.92916e-11
142.251	3.65029e-11
142.419	3.28714e-11
142.586	2.85416e-11
142.754	2.36695e-11
142.922	1.84173e-11
143.089	1.29487e-11
143.257	7.42436e-12
143.424	1.99784e-12
143.592	-3.18837e-12
143.759	-8.00604e-12
143.927	-1.2344e-11
144.094	-1.611e-11
144.262	-1.92327e-11
144.429	-2.16618e-11
144.597	-2.3369e-11
144.765	-2.43468e-11
144.932	-2.46083e-11
145.1	-2.41853e-11
145.267	-2.31265e-11
145.435	-2.14951e-11
145.602	-1.93669e-11
145.77	-1.68267e-11
145.937	-1.39661e-11
146.105	-1.08804e-11
146.273	-7.66595e-12
146.44	-4.41726e-12
146.608	-1.22469e-12
146.775	1.82784e-12
146.943	4.66478e-12
147.11	7.22057e-12
147.278	9.44085e-12
147.445	1.12834e-11
147.613	1.27184e-11
147.781	1.37291e-11
147.948	1.43109e-11
148.116	1.44713e-11
148.283	1.42288e-11
148.451	1.36118e-11
148.618	1.26575e-11
148.786	1.14103e-11
148.953	9.92005e-12
149.121	8.24049e-12
149.288	6.42767e-12
149.456	4.53822e-12
149.624	2.62778e-12
149.791	7.49519e-13
149.959	-1.04714e-12
150.126	-2.7177e-12
150.294	-4.22348e-12
150.461	-5.53244e-12
150.629	-6.61959e-12
150.796	-7.46738e-12
150.964	-8.0657e-12
151.132	-8.41182e-12
151.299	-8.51e-12
151.467	-8.37103e-12
151.634	-8.01158e-12
151.802	-7.45342e-12
151.969	-6.72254e-12
152.137	-5.84823e-12
152.304	-4.8621e-12
152.472	-3.79709e-12
152.64	-2.68649e-12
152.807	-1.56304e-12
152.975	-4.5802e-13
153.142	5.99455e-13
153.31	1.58316e-12
153.477	2.47032e-12
153.645	3.24199e-12
153.812	3.88345e-12
153.98	4.38427e-12
154.147	4.73847e-12
154.315	4.94435e-12
154.483	5.00436e-12
154.65	4.92479e-12
154.818	4.71539e-12
154.985	4.38892e-12
155.153	3.96062e-12
155.32	3.4477e-12
155.488	2.86872e-12
155.655	2.24305e-12
155.823	1.59025e-12
155.991	9.29594e-13
156.158	2.79497e-13
156.326	-3.42903e-13
156.493	-9.22158e-13
156.661	-1.44483e-12
156.828	-1.89976e-12
156.996	-2.27823e-12
157.163	-2.57408e-12
157.331	-2.78374e-12
157.499	-2.90619e-12
157.666	-2.94282e-12
157.834	-2.8973e-12
158.001	-2.77533e-12
158.169	-2.58438e-12
158.336	-2.33341e-12
158.504	-2.0325e-12
158.671	-1.69257e-12
158.839	-1.325e-12
159.006	-9.41297e-13
159.174	-5.52795e-13
159.342	-1.70336e-13
159.509	1.95989e-13
159.677	5.3708e-13
159.844	8.45014e-13
160.012	1.1132e-12
160.179	1.3365e-12
160.347	1.51127e-12
160.514	1.63537e-12
160.682	1.70819e-12
160.85	1.73052e-12
161.017	1.7045e-12
161.185	1.63346e-12
161.352	1.52178e-12
161.52	1.37472e-12
161.687	1.19819e-12
161.855	9.98615e-13
162.022	7.82675e-13
162.19	5.57145e-13
162.358	3.28687e-13
162.525	1.03684e-13
162.693	-1.11923e-13
162.86	-3.1277e-13
163.028	-4.94188e-13
163.195	-6.52291e-13
163.363	-7.84038e-13
163.53	-8.87272e-13
163.698	-9.6073e-13
163.865	-1.00403e-12
164.033	-1.01762e-12
164.201	-1.00276e-12
164.368	-9.61388e-13
164.536	-8.96075e-13
164.703	-8.09901e-13
164.871	-7.06345e-13
165.038	-5.89173e-13
165.206	-4.62315e-13
165.373	-3.29754e-13
165.541	-1.95411e-13
165.709	-6.3041e-14
165.876	6.38564e-14
166.044	1.82122e-13
166.211	2.89003e-13
166.379	3.82207e-13
166.546	4.59936e-13
166.714	5.20915e-13
166.881	5.64393e-13
167.049	5.90134e-13
167.217	5.98402e-13
167.384	5.89921e-13
167.552	5.6583e-13
167.719	5.27635e-13
167.887	4.77141e-13
168.054	4.16392e-13
168.222	3.47601e-13
168.389	2.73077e-13
168.557	1.95161e-13
168.724	1.16162e-13
168.892	3.82891e-14
169.06	-3.63972e-14
169.227	-1.06035e-13
169.395	-1.69003e-13
169.562	-2.23947e-13
169.73	-2.69806e-13
169.897	-3.05825e-13
170.065	-3.31557e-13
170.232	-3.46859e-13
170.4	-3.51882e-13
170.568	-3.47046e-13
170.735	-3.3302e-13
170.903	-3.10684e-13
171.07	-2.81098e-13
171.238	-2.45462e-13
171.405	-2.05075e-13
171.573	-1.61295e-13
171.74	-1.15499e-13
171.908	-6.90447e-14
172.076	-2.32325e-14
172.243	2.07242e-14
172.411	6.1729e-14
172.578	9.88251e-14
172.746	1.31214e-13
172.913	1.5827e-13
173.081	1.79545e-13
173.248	1.94774e-13
173.416	2.03869e-13
173.583	2.06918e-13
173.751	2.04164e-13
173.919	1.95998e-13
174.086	1.82937e-13
174.254	1.65602e-13
174.421	1.44697e-13
174.589	1.20987e-13
174.756	9.5268e-14
174.924	6.83511e-14
175.091	4.10344e-14
175.259	1.40835e-14
175.427	-1.17871e-14
175.594	-3.59316e-14
175.762	-5.77858e-14
175.929	-7.6879e-14
176.097	-9.2841e-14
176.264	-1.05407e-13
176.432	-1.14419e-13
176.599	-1.19825e-13
176.767	-1.21673e-13
176.934	-1.20107e-13
177.102	-1.15353e-13
177.27	-1.07716e-13
177.437	-9.75592e-14
177.605	-8.52966e-14
177.772	-7.13766e-14
177.94	-5.62682e-14
178.107	-4.04478e-14
178.275	-2.43847e-14
178.442	-8.52993e-15
178.61	6.69609e-15
178.778	2.09127e-14
178.945	3.37875e-14
179.113	4.50427e-14
179.28	5.44595e-14
179.448	6.18814e-14
179.615	6.72145e-14
179.783	7.0427e-14
179.95	7.15466e-14
180.118	7.06564e-14
180.286	6.78899e-14
180.453	6.34243e-14
180.621	5.74735e-14
180.788	5.02804e-14
180.956	4.21083e-14
181.123	3.3233e-14
181.291	2.39345e-14
181.458	1.44891e-14
181.626	5.16201e-15
181.793	-3.79911e-15
181.961	-1.217e-14
182.129	-1.97548e-14
182.296	-2.63894e-14
182.464	-3.19449e-14
182.631	-3.63284e-14
182.799	-3.94842e-14
182.966	-4.13931e-14
183.134	-4.20707e-14
183.301	-4.15655e-14
183.469	-3.99555e-14
183.637	-3.73446e-14
183.804	-3.38582e-14
183.972	-2.96388e-14
184.139	-2.48412e-14
184.307	-1.96276e-14
184.474	-1.41624e-14
184.642	-8.60834e-15
184.809	-3.12141e-15
184.977	2.15252e-15
185.145	7.08137e-15
185.312	1.15496e-14
185.48	1.54606e-14
185.647	1.87379e-14
185.815	2.13269e-14
185.982	2.31942e-14
186.15	2.43284e-14
186.317	2.47382e-14
186.485	2.44519e-14
186.652	2.35151e-14
186.82	2.19885e-14
186.988	1.9946e-14
187.155	1.7471e-14
187.323	1.46546e-14
187.49	1.15919e-14
187.658	8.3798e-15
187.825	5.1139e-15
187.993	1.88609e-15
188.16	-1.21779e-15
188.328	-4.11991e-15
188.496	-6.75217e-15
188.663	-9.05754e-15
188.831	-1.0991e-14
188.998	-1.252e-14
189.166	-1.36249e-14
189.333	-1.42987e-14
189.501	-1.45463e-14
189.668	-1.43843e-14
189.836	-1.38392e-14
190.004	-1.29468e-14
190.171	-1.17501e-14
190.339	-1.02984e-14
190.506	-8.64502e-15
190.674	-6.84592e-15
