#t	omega	theta
0	0.75	0
0.167552	0.93373	0.141556
0.335103	1.07867	0.310725
0.502655	1.18053	0.500611
0.670206	1.23791	0.703835
0.837758	1.25233	0.913033
1.00531	1.22778	1.12131
1.17286	1.16976	1.3226
1.34041	1.08418	1.51177
1.50796	0.976381	1.68467
1.67552	0.850509	1.83795
1.84307	0.709268	1.96882
2.01062	0.553946	2.07484
2.17817	0.384655	2.15367
2.34572	0.20065	2.20292
2.51327	0.000676305	2.22002
2.68083	-0.216668	2.20218
2.84838	-0.452525	2.14638
3.01593	-0.707263	2.04948
3.18348	-0.979732	1.90838
3.35103	-1.26625	1.72037
3.51858	-1.55933	1.48368
3.68614	-1.84652	1.19816
3.85369	-2.11023	0.866208
4.02124	-2.32959	0.493492
4.18879	-2.48526	0.0891277
4.35634	-2.56596	-0.335113
4.52389	-2.57365	-0.76663
4.69145	-2.52385	-1.19432
4.859	-2.44085	-1.61052
5.02655	-2.35057	-2.01186
5.1941	-2.27472	-2.39903
5.36165	-2.2279	-2.77576
5.5292	-2.21701	3.13556
5.69675	-2.24159	2.7625
5.86431	-2.29418	2.38282
6.03186	-2.36046	1.99293
6.19941	-2.4198	1.5922
6.36696	-2.44747	1.18382
6.53451	-2.4191	0.775188
6.70206	-2.31675	0.377327
6.86962	-2.13397	0.00335399
7.03717	-1.87683	-0.333602
7.20472	-1.56058	-0.622269
7.37227	-1.20402	-0.854308
7.53982	-0.824721	-1.02448
7.70737	-0.436653	-1.13019
7.87493	-0.0501413	-1.17089
8.04248	0.326837	-1.14753
8.21003	0.686921	-1.06231
8.37758	1.0218	-0.918742
8.54513	1.32133	-0.721871
8.71268	1.57365	-0.478597
8.88024	1.76687	-0.197842
9.04779	1.89177	0.10966
9.21534	1.94487	0.432073
9.38289	1.93004	0.757586
9.55044	1.85785	1.07563
9.71799	1.74276	1.37776
9.88554	1.59965	1.65807
10.0531	1.44103	1.91295
10.2206	1.27575	2.1406
10.3882	1.10884	2.34037
10.5558	0.942264	2.5122
10.7233	0.775782	2.65613
10.8909	0.607837	2.77208
11.0584	0.436206	2.85962
11.226	0.258441	2.91791
11.3935	0.0721192	2.94574
11.5611	-0.125052	2.94148
11.7286	-0.335209	2.90311
11.8962	-0.560313	2.82831
12.0637	-0.802036	2.71442
12.2313	-1.06141	2.55856
12.3988	-1.33807	2.35777
12.5664	-1.6289	2.10936
12.7339	-1.92611	1.81155
12.9015	-2.2152	1.46436
13.069	-2.47408	1.0709
13.2366	-2.67543	0.638502
13.4041	-2.79362	0.179026
13.5717	-2.81441	-0.292174
13.7392	-2.74174	-0.758838
13.9068	-2.5968	-1.20689
14.0743	-2.40956	-1.62667
14.2419	-2.20887	-2.0136
14.4094	-2.01607	-2.36733
14.577	-1.84338	-2.69033
14.7445	-1.69533	-2.98644
14.9121	-1.57115	3.0234
15.0796	-1.46699	2.76913
15.2472	-1.37746	2.531
15.4147	-1.2967	2.30705
15.5823	-1.21903	2.0963
15.7499	-1.13942	1.89866
15.9174	-1.0539	1.7148
16.085	-0.959782	1.54597
16.2525	-0.855932	1.39372
16.4201	-0.742791	1.25967
16.5876	-0.622311	1.14523
16.7552	-0.497731	1.05136
16.9227	-0.373239	0.97843
17.0903	-0.25358	0.92602
17.2578	-0.143654	0.892911
17.4254	-0.0481546	0.877074
17.5929	0.02873	0.875733
17.7605	0.0835355	0.885467
17.928	0.113657	0.902346
18.0956	0.11741	0.922079
18.2631	0.0940217	0.940172
18.4307	0.0435951	0.952075
18.5982	-0.0329485	0.953321
18.7658	-0.133901	0.939669
18.9333	-0.256756	0.907226
19.1009	-0.398148	0.852592
19.2684	-0.553751	0.773009
19.436	-0.718186	0.666533
19.6035	-0.885018	0.532207
19.7711	-1.04694	0.370234
19.9386	-1.19627	0.182078
20.1062	-1.32576	-0.0295301
20.2737	-1.42967	-0.260756
20.4413	-1.50478	-0.507003
20.6088	-1.55113	-0.763401
20.7764	-1.57202	-1.02536
20.944	-1.57344	-1.2891
21.1115	-1.56296	-1.55196
21.2791	-1.54856	-1.81263
21.4466	-1.53766	-2.07109
21.6142	-1.53652	-2.32846
21.7817	-1.54989	-2.58679
21.9493	-1.58096	-2.84882
22.1168	-1.63121	-3.11765
22.2844	-1.70019	2.88669
22.4519	-1.78499	2.5949
22.6195	-1.87958	2.28798
22.787	-1.97408	1.96505
22.9546	-2.05456	1.62724
23.1221	-2.10397	1.27829
23.2897	-2.10458	0.924923
23.4572	-2.04187	0.576592
23.6248	-1.90829	0.244662
23.7923	-1.70525	-0.0589872
23.9599	-1.44218	-0.323412
24.1274	-1.1334	-0.539712
24.295	-0.79451	-0.701539
24.4625	-0.439919	-0.805082
24.6301	-0.0818909	-0.848769
24.7976	0.269091	-0.832919
24.9652	0.603362	-0.759528
25.1327	0.911117	-0.63221
25.3003	1.18198	-0.45627
25.4678	1.40545	-0.238775
25.6354	1.57231	0.011532
25.8029	1.67664	0.284609
25.9705	1.71755	0.569826
26.1381	1.69975	0.856878
26.3056	1.63249	1.13665
26.4732	1.52735	1.40182
26.6407	1.39576	1.647
26.8083	1.24719	1.8686
26.9758	1.08826	2.06436
27.1434	0.92269	2.23291
27.3109	0.751833	2.37327
27.4785	0.57528	2.48453
27.646	0.391517	2.56564
27.8136	0.198411	2.61521
27.9811	-0.00642207	2.63148
28.1487	-0.225372	2.61227
28.3162	-0.460616	2.55504
28.4838	-0.713838	2.45691
28.6513	-0.985733	2.31479
28.8189	-1.27513	2.1256
28.9864	-1.57764	1.88674
29.154	-1.88384	1.59671
29.3215	-2.17773	1.25614
29.4891	-2.43674	0.868889
29.6566	-2.63508	0.442974
29.8242	-2.75121	-0.00951773
29.9917	-2.7765	-0.473856
30.1593	-2.7201	-0.935341
30.3268	-2.60599	-1.38214
30.4944	-2.46443	-1.80709
30.6619	-2.32297	-2.208
30.8295	-2.20125	-2.58664
30.997	-2.10977	-2.94735
31.1646	-2.05104	2.98771
31.3322	-2.02122	2.64691
31.4997	-2.01156	2.30926
31.6673	-2.0094	1.9724
31.8348	-1.9994	1.63634
32.0024	-1.96524	1.30375
32.1699	-1.89213	0.979966
32.3375	-1.76958	0.672466
32.505	-1.59358	0.389971
32.6726	-1.36708	0.141284
32.8401	-1.09883	-0.0658028
33.0077	-0.80109	-0.225288
33.1752	-0.487333	-0.333357
33.3428	-0.170665	-0.388434
33.5103	0.136839	-0.391061
33.6779	0.424178	-0.343707
33.8454	0.681283	-0.250608
34.013	0.89906	-0.117606
34.1805	1.06982	0.0480401
34.3481	1.18803	0.237953
34.5156	1.25111	0.443067
34.6832	1.25987	0.654164
34.8507	1.2182	0.862432
35.0183	1.13222	1.05991
35.1858	1.00896	1.23976
35.3534	0.855153	1.39631
35.5209	0.676398	1.52493
35.6885	0.476778	1.62181
35.856	0.258956	1.68369
36.0236	0.0245598	1.70766
36.1911	-0.225232	1.69106
36.3587	-0.488966	1.63141
36.5263	-0.76407	1.52656
36.6938	-1.0459	1.37498
36.8614	-1.32683	1.17612
37.0289	-1.59563	0.931029
37.1965	-1.83787	0.642904
37.364	-2.03775	0.317524
37.5316	-2.18176	-0.0368201
37.6991	-2.26293	-0.410063
37.8667	-2.28392	-0.791756
38.0342	-2.25691	-1.17272
38.2018	-2.20041	-1.5464
38.3693	-2.13456	-1.90956
38.5369	-2.07712	-2.26218
38.7044	-2.04117	-2.60682
38.872	-2.03444	-2.94782
39.0395	-2.0593	2.99284
39.2071	-2.11287	2.64367
39.3746	-2.18678	2.28366
39.5422	-2.26688	1.91052
39.7097	-2.33359	1.52477
39.8773	-2.36394	1.13055
40.0448	-2.33584	0.735878
40.2124	-2.23362	0.351967
40.3799	-2.05244	-0.00818376
40.5475	-1.79896	-0.331757
40.715	-1.48811	-0.60781
40.8826	-1.13793	-0.828233
41.0501	-0.765264	-0.987885
41.2177	-0.383698	-1.08418
41.3852	-0.00354861	-1.11655
41.5528	0.366903	-1.08592
41.7204	0.719803	-0.994574
41.8879	1.04632	-0.846178
42.0555	1.33596	-0.646004
42.223	1.57695	-0.40121
42.3906	1.75799	-0.120918
42.5581	1.87107	0.184091
42.7257	1.9141	0.502158
42.8932	1.89211	0.82187
43.0608	1.8162	1.13319
43.2283	1.70064	1.42827
43.3959	1.55959	1.70166
43.5634	1.40467	1.95013
43.731	1.2439	2.17205
43.8985	1.0817	2.36689
44.0661	0.919618	2.53454
44.2336	0.757226	2.67504
44.4012	0.592886	2.78819
44.5687	0.424378	2.87348
44.7363	0.249302	2.93003
44.9038	0.0652982	2.95653
45.0714	-0.12986	2.95129
45.2389	-0.338249	2.91227
45.4065	-0.561783	2.83709
45.574	-0.802101	2.72308
45.7416	-1.06023	2.56731
45.9091	-1.33583	2.36681
46.0767	-1.62585	2.11885
46.2442	-1.92261	1.82159
46.4118	-2.21177	1.47499
46.5793	-2.47135	1.08206
46.7469	-2.67404	0.650014
46.9145	-2.79403	0.190623
47.082	-2.81664	-0.280801
47.2496	-2.74542	-0.747968
47.4171	-2.60122	-1.19671
47.5847	-2.41399	-1.61725
47.7522	-2.21271	-2.00487
47.9198	-2.01891	-2.35917
48.0873	-1.84501	-2.68254
48.2549	-1.69567	-2.97882
48.4224	-1.57024	3.03108
48.59	-1.4649	2.77705
48.7575	-1.37432	2.53936
48.9251	-1.29267	2.31602
49.0926	-1.21432	2.106
49.2602	-1.13429	1.90919
49.4277	-1.04862	1.72621
49.5953	-0.954671	1.55826
49.7628	-0.8513	1.40683
49.9304	-0.738932	1.27349
50.0979	-0.619481	1.15961
50.2655	-0.496126	1.06612
50.433	-0.372987	0.993345
50.6006	-0.254738	0.940859
50.7681	-0.14621	0.907438
50.9357	-0.052034	0.891061
51.1032	0.0236505	0.888967
51.2708	0.0774156	0.89776
51.4383	0.106679	0.913539
51.6059	0.109762	0.932045
51.7734	0.0858899	0.948813
51.941	0.0351528	0.959324
52.1086	-0.0415452	0.959142
52.2761	-0.142513	0.944046
52.4437	-0.265256	0.910167
52.6112	-0.406417	0.854127
52.7788	-0.561664	0.773187
52.9463	-0.72561	0.665423
53.1139	-0.891806	0.529905
53.2814	-1.05294	0.366858
53.449	-1.20134	0.177773
53.6165	-1.32979	-0.0345983
53.7841	-1.43262	-0.266409
53.9516	-1.50669	-0.513061
54.1192	-1.55212	-0.769699
54.2867	-1.57232	-1.03177
54.4543	-1.5733	-1.29551
54.6218	-1.56268	-1.55834
54.7894	-1.54841	-1.81897
54.9569	-1.5379	-2.07743
55.1245	-1.53736	-2.33488
55.292	-1.55151	-2.59343
55.4596	-1.5835	-2.8558
55.6271	-1.63477	-3.12514
55.7947	-1.70482	2.87852
55.9622	-1.79065	2.58587
56.1298	-1.88611	2.27792
56.2973	-1.98115	1.95384
56.4649	-2.06166	1.61483
56.6324	-2.11041	1.26474
56.8	-2.10962	0.910401
56.9675	-2.04485	0.561391
57.1351	-1.90881	0.229163
57.3027	-1.70325	-0.0743601
57.4702	-1.43788	-0.338251
57.6378	-1.1272	-0.553665
57.8053	-0.786894	-0.714328
57.9729	-0.431292	-0.816506
58.1404	-0.0725681	-0.858685
58.308	0.278888	-0.841231
58.4755	0.61347	-0.766171
58.6431	0.921392	-0.637143
58.8106	1.19226	-0.459478
58.9782	1.41552	-0.240274
59.1457	1.58194	0.0116869
59.3133	1.6856	0.286324
59.4808	1.72566	0.572974
59.6484	1.70696	0.861309
59.8159	1.63887	1.14222
59.9835	1.5331	1.4084
60.151	1.40116	1.65451
60.3186	1.25255	1.877
60.4861	1.09389	2.07369
60.6537	0.928902	2.24322
60.8212	0.758902	2.38469
60.9888	0.583463	2.49723
61.1563	0.401052	2.57982
61.3239	0.209528	2.63111
61.4914	0.00649831	2.64939
61.659	-0.210438	2.63251
61.8265	-0.443488	2.57797
61.9941	-0.694403	2.4829
62.1616	-0.964024	2.34423
62.3292	-1.25145	2.15885
62.4967	-1.55273	1.92408
62.6643	-1.85907	1.63823
62.8319	-2.15517	1.30166
62.9994	-2.41897	0.917825
63.167	-2.6246	0.494306
63.3345	-2.74945	0.042849
63.5021	-2.78308	-0.421913
63.6696	-2.73275	-0.88505
63.8372	-2.6213	-1.33424
64.0047	-2.47888	-1.76173
64.1723	-2.33374	-2.16478
64.3398	-2.20646	-2.54479
64.5074	-2.10847	-2.90583
64.6749	-2.04303	3.03001
64.8425	-2.00698	2.69108
65.01	-1.99218	2.35627
65.1776	-1.98667	2.02297
65.3451	-1.97575	1.69083
65.5127	-1.94357	1.36208
65.6802	-1.87546	1.04155
65.8478	-1.76052	0.736236
66.0153	-1.59386	0.454494
66.1829	-1.37733	0.204926
66.3504	-1.11866	-0.00469244
66.518	-0.829411	-0.168231
66.6855	-0.522695	-0.281656
66.8531	-0.21156	-0.343143
67.0206	0.0918362	-0.352984
67.1882	0.376397	-0.313422
67.3557	0.632008	-0.228471
67.5233	0.849585	-0.103761
67.6908	1.02145	0.0536707
67.8584	1.14203	0.235662
68.026	1.20854	0.433343
68.1935	1.22144	0.637648
68.3611	1.18418	0.839846
68.5286	1.10243	1.03198
68.6962	0.982855	1.20716
68.8637	0.831954	1.3596
69.0313	0.655245	1.48451
69.1988	0.456874	1.57796
69.3664	0.239667	1.63656
69.5339	0.00549399	1.65733
69.7015	-0.244157	1.63754
69.869	-0.507455	1.57475
70.0366	-0.781384	1.46689
70.2041	-1.06081	1.31259
70.3717	-1.33763	1.11155
70.5392	-1.60032	0.865129
70.7068	-1.83449	0.57687
70.8743	-2.02499	0.25283
71.0419	-2.15949	-0.0985707
71.2094	-2.23252	-0.46737
71.377	-2.24799	-0.843462
71.5445	-2.21871	-1.21817
71.7121	-2.16298	-1.58548
71.8796	-2.10017	-1.9426
72.0472	-2.04706	-2.28981
72.2147	-2.01589	-2.62981
72.3823	-2.01371	-2.96696
72.5498	-2.04254	2.97683
72.7174	-2.09927	2.63019
72.8849	-2.17549	2.27226
73.0525	-2.25705	1.90087
73.2201	-2.32451	1.51669
73.3876	-2.35507	1.12398
73.5552	-2.32689	0.730796
73.7227	-2.22456	0.348396
73.8903	-2.04342	-0.0102382
74.0578	-1.79022	-0.332321
74.2254	-1.47987	-0.60695
74.3929	-1.13032	-0.826044
74.5605	-0.758348	-0.984478
74.728	-0.377484	-1.07968
74.8956	0.00195986	-1.11106
75.0631	0.371676	-1.07957
75.2307	0.723762	-0.98749
75.3982	1.04934	-0.838508
75.5658	1.33787	-0.63792
75.7333	1.57759	-0.39291
75.9009	1.7573	-0.112622
76.0684	1.86909	0.192161
76.236	1.91102	0.5098
76.4035	1.88826	0.828925
76.5711	1.81195	1.13957
76.7386	1.69634	1.43392
76.9062	1.55552	1.70661
77.0737	1.40102	1.95442
77.2413	1.24075	2.17578
77.4088	1.07908	2.37013
77.5764	0.917532	2.5374
77.7439	0.75563	2.67758
77.9115	0.591739	2.7905
78.079	0.42364	2.87564
78.2466	0.248938	2.9321
78.4142	0.0652807	2.95856
78.5817	-0.129549	2.95335
78.7493	-0.337621	2.91441
78.9168	-0.560843	2.83936
79.0844	-0.800853	2.72553
79.2519	-1.05868	2.57
79.4195	-1.334	2.36978
79.587	-1.6238	2.12215
79.7546	-1.92046	1.82524
79.9221	-2.20968	1.479
80.0897	-2.46957	1.0864
80.2572	-2.67283	0.654602
80.4248	-2.79357	0.195354
80.5923	-2.81698	-0.276061
80.7599	-2.74639	-0.74334
80.9274	-2.60256	-1.19228
81.095	-2.41537	-1.61305
81.2625	-2.21385	-2.00089
81.4301	-2.01962	-2.35534
81.5976	-1.84519	-2.67879
81.7652	-1.69526	-2.97505
81.9327	-1.56922	3.03497
82.1003	-1.46331	2.78116
82.2678	-1.3722	2.54378
82.4354	-1.29011	2.32083
82.6029	-1.21141	2.11127
82.7705	-1.13115	1.91497
82.938	-1.04542	1.73253
83.1056	-0.951564	1.5651
83.2731	-0.848463	1.41418
83.4407	-0.73653	1.28128
83.6083	-0.617658	1.16775
83.7758	-0.494996	1.07451
83.9434	-0.372627	1.00186
84.1109	-0.255183	0.949368
84.2785	-0.147457	0.915806
84.446	-0.0540462	0.899155
84.6136	0.0209399	0.896664
84.7811	0.0740941	0.904951
84.9487	0.102847	0.920129
85.1162	0.105525	0.937957
85.2838	0.0813531	0.953989
85.4513	0.0304133	0.963722
85.6189	-0.0463992	0.962734
85.7864	-0.147402	0.946821
85.954	-0.270111	0.912125
86.1215	-0.411167	0.855279
86.2891	-0.56624	0.773557
86.4566	-0.729935	0.665047
86.6242	-0.895797	0.528831
86.7917	-1.05651	0.365149
86.9593	-1.2044	0.175508
87.1268	-1.33228	-0.0373293
87.2944	-1.4345	-0.269506
87.4619	-1.50798	-0.516424
87.6295	-1.5529	-0.773234
87.797	-1.57269	-1.0354
87.9646	-1.57342	-1.29918
88.1321	-1.56271	-1.56202
88.2997	-1.54851	-1.82266
88.4672	-1.53822	-2.08115
88.6348	-1.53802	-2.33868
88.8024	-1.55263	-2.59737
88.9699	-1.58516	-2.85998
89.1375	-1.63704	-3.12965
89.305	-1.70772	2.87357
89.4726	-1.79417	2.58038
89.6401	-1.89015	2.2718
89.8077	-1.98551	1.94702
89.9752	-2.06602	1.60727
90.1428	-2.11436	1.25648
90.3103	-2.1127	0.901543
90.4779	-2.04666	0.552119
90.6454	-1.90912	0.219712
90.813	-1.702	-0.0837316
90.9805	-1.43524	-0.347295
91.1481	-1.12343	-0.562167
91.3156	-0.782257	-0.722121
91.4832	-0.426047	-0.823468
91.6507	-0.0669046	-0.864731
91.8183	0.284836	-0.846303
91.9858	0.619606	-0.770229
92.1534	0.927632	-0.640163
92.3209	1.1985	-0.461451
92.4885	1.42165	-0.241209
92.656	1.5878	0.011759
92.8236	1.69105	0.287346
92.9911	1.73061	0.574867
93.1587	1.71135	0.863985
93.3262	1.64277	1.14559
93.4938	1.53661	1.41238
93.6613	1.40446	1.65906
93.8289	1.25583	1.88211
93.9965	1.09734	2.07935
94.164	0.932712	2.24949
94.3316	0.763238	2.39164
94.4991	0.588483	2.50496
94.6667	0.406903	2.58846
94.8342	0.216351	2.64082
95.0018	0.0144305	2.66033
95.1693	-0.201265	2.64488
95.3369	-0.432957	2.59199
95.5044	-0.682437	2.4988
95.672	-0.950628	2.36225
95.8395	-1.23679	2.17923
96.0071	-1.53723	1.94699
96.1746	-1.84354	1.66376
96.3422	-2.14087	1.3297
96.5097	-2.40749	0.948057
96.6773	-2.61752	0.526112
96.8448	-2.74775	0.0753971
97.0124	-2.78666	-0.389533
97.1799	-2.74027	-0.853625
97.3475	-2.63068	-1.30426
97.515	-2.48792	-1.73332
97.6826	-2.34062	-2.13773
97.8501	-2.20996	-2.51862
98.0177	-2.10795	-2.87991
98.1852	-2.03832	3.05636
98.3528	-1.99833	2.71856
98.5203	-1.98023	2.38548
98.6879	-1.97248	2.05439
98.8554	-1.96076	1.72472
99.023	-1.92958	1.39842
99.1906	-1.86433	1.08002
99.3581	-1.75394	0.776215
99.5257	-1.593	0.495108
99.6932	-1.38271	0.245163
99.8608	-1.13015	0.0341248
100.028	-0.846397	-0.13181
100.196	-0.544307	-0.248482
100.363	-0.236859	-0.313911
100.531	0.0637609	-0.328237
100.699	0.346403	-0.293551
100.866	0.600925	-0.213729
101.034	0.818247	-0.0942592
101.201	0.990702	0.0579588
101.369	1.11267	0.234903
101.536	1.18126	0.427831
101.704	1.19672	0.627775
101.871	1.16224	0.826062
102.039	1.08318	1.01475
102.206	0.965997	1.18691
102.374	0.817031	1.33669
102.542	0.641746	1.45923
102.709	0.444318	1.5505
102.877	0.227673	1.60705
103.044	-0.00616826	1.62584
103.212	-0.255522	1.60412
103.379	-0.518323	1.53946
103.547	-0.791277	1.42986
103.714	-1.06896	1.27403
103.882	-1.34299	1.07184
104.05	-1.60171	0.824838
104.217	-1.83082	0.536755
104.385	-2.01559	0.213806
104.552	-2.14444	-0.135539
104.72	-2.21278	-0.501405
104.887	-2.22523	-0.87391
105.055	-2.19486	-1.24469
105.222	-2.1398	-1.60803
105.39	-2.07891	-1.96142
105.558	-2.02841	-2.30527
105.725	-2.00001	-2.64239
105.893	-2.00043	-2.9771
106.06	-2.03144	2.96873
106.228	-2.08988	2.6238
106.395	-2.16731	2.26733
106.563	-2.24967	1.89724
106.73	-2.3176	1.51426
106.898	-2.34847	1.12268
107.065	-2.32058	0.730575
107.233	-2.21864	0.349202
107.401	-2.03803	-0.00848129
107.568	-1.78547	-0.329713
107.736	-1.47581	-0.603603
107.903	-1.12693	-0.822073
108.071	-0.75556	-0.97999
108.238	-0.375238	-1.07477
108.406	0.0037066	-1.10581
108.573	0.372929	-1.07407
108.741	0.724482	-0.981829
108.909	1.04945	-0.832776
109.076	1.33729	-0.632226
109.244	1.57625	-0.387377
109.411	1.75518	-0.107379
109.579	1.86626	0.196988
109.746	1.90765	0.514105
109.914	1.88457	0.832636
110.081	1.80815	1.14265
110.249	1.69262	1.43637
110.417	1.552	1.70845
110.584	1.39776	1.9557
110.752	1.23774	2.17653
110.919	1.07629	2.37039
111.087	0.914893	2.53721
111.254	0.753077	2.67696
111.422	0.589198	2.78945
111.589	0.42104	2.87416
111.757	0.246209	2.93017
111.924	0.0623541	2.95616
112.092	-0.132742	2.95044
112.26	-0.34115	2.91093
112.427	-0.564774	2.83526
112.595	-0.805248	2.72073
112.762	-1.06358	2.56442
112.93	-1.3394	2.36334
113.097	-1.6296	2.11477
113.265	-1.92644	1.81688
113.432	-2.21545	1.46964
113.6	-2.47456	1.07613
113.768	-2.67643	0.643606
113.935	-2.79531	0.183906
114.103	-2.81676	-0.287635
114.27	-2.74458	-0.754737
114.438	-2.59983	-1.20328
114.605	-2.41251	-1.62357
114.773	-2.21155	-2.01097
114.94	-2.01838	-2.36512
115.108	-1.84529	-2.68848
115.276	-1.69687	-2.98487
115.443	-1.57237	3.02474
115.611	-1.46795	2.77028
115.778	-1.37821	2.53201
115.946	-1.2973	2.30795
116.113	-1.21951	2.0971
116.281	-1.13983	1.89939
116.448	-1.05425	1.71548
116.616	-0.960112	1.54659
116.783	-0.856254	1.39429
116.951	-0.743117	1.26018
117.119	-0.622647	1.14568
117.286	-0.49808	1.05176
117.454	-0.373601	0.978765
117.621	-0.253951	0.926293
117.789	-0.144029	0.893121
117.956	-0.0485274	0.877222
118.124	0.0283653	0.875819
118.291	0.0831849	0.885493
118.459	0.113326	0.902314
118.627	0.117102	0.921994
118.794	0.0937417	0.940038
118.962	0.0433453	0.951896
119.129	-0.0331659	0.953103
119.297	-0.134084	0.939417
119.464	-0.256903	0.906946
119.632	-0.398257	0.852291
119.799	-0.55382	0.772694
119.967	-0.718212	0.666209
120.135	-0.884998	0.531883
120.302	-1.04688	0.369917
120.47	-1.19616	0.181776
120.637	-1.32561	-0.0298104
120.805	-1.42948	-0.261008
120.972	-1.50457	-0.507221
121.14	-1.5509	-0.763583
121.307	-1.57179	-1.02551
121.475	-1.57321	-1.2892
121.642	-1.56274	-1.55203
121.81	-1.54835	-1.81267
121.978	-1.53747	-2.07109
122.145	-1.53634	-2.32843
122.313	-1.54971	-2.58673
122.48	-1.58078	-2.84873
122.648	-1.63102	-3.11753
122.815	-1.69999	2.88685
122.983	-1.78477	2.59509
123.15	-1.87935	2.28821
123.318	-1.97384	1.96532
123.486	-2.05433	1.62754
123.653	-2.10375	1.27864
123.821	-2.1044	0.925301
123.988	-2.04175	0.576996
124.156	-1.90824	0.24508
124.323	-1.70527	-0.0585657
124.491	-1.44227	-0.322999
124.658	-1.13354	-0.539318
124.826	-0.794691	-0.701172
124.993	-0.440131	-0.804748
125.161	-0.0821268	-0.848472
125.329	0.268839	-0.832664
125.496	0.603097	-0.759316
125.664	0.910842	-0.632044
125.831	1.1817	-0.45615
125.999	1.40517	-0.238701
126.166	1.57204	0.0115589
126.334	1.67638	0.284591
126.501	1.71731	0.569767
126.669	1.69953	0.85678
126.837	1.6323	1.13652
127.004	1.52717	1.40165
127.172	1.3956	1.64681
127.339	1.24703	1.86838
127.507	1.08809	2.06412
127.674	0.922507	2.23263
127.842	0.751627	2.37296
128.009	0.575046	2.48419
128.177	0.391246	2.56526
128.345	0.198098	2.61478
128.512	-0.0067837	2.63098
128.68	-0.225788	2.61171
128.847	-0.461092	2.55441
129.015	-0.714377	2.45619
129.182	-0.986333	2.31397
129.35	-1.27579	2.12469
129.517	-1.57832	1.88571
129.685	-1.88452	1.59557
129.852	-2.17835	1.25488
130.02	-2.43721	0.867543
130.188	-2.63535	0.441565
130.355	-2.75124	-0.0109527
130.523	-2.77631	-0.475277
130.69	-2.71975	-0.936715
