#t	omega	theta
0	0.75	0
0.167552	0.917552	0.140183
0.335103	1.04788	0.305391
0.502655	1.13716	0.489033
0.670206	1.18424	0.684095
0.837758	1.19059	0.883596
1.00531	1.15988	1.08099
1.17286	1.0971	1.27048
1.34041	1.00757	1.44714
1.50796	0.896117	1.6069
1.67552	0.766514	1.74642
1.84307	0.621229	1.86289
2.01062	0.461485	1.95379
2.17817	0.287471	2.01674
2.34572	0.0986635	2.0493
2.51327	-0.105816	2.04892
2.68083	-0.326783	2.01292
2.84838	-0.564496	1.93848
3.01593	-0.818013	1.82287
3.18348	-1.08436	1.66364
3.35103	-1.35753	1.4591
3.51858	-1.62751	1.2089
3.68614	-1.88	0.914691
3.85369	-2.09745	0.58086
4.02124	-2.26235	0.214773
4.18879	-2.36215	-0.173606
4.35634	-2.39402	-0.572975
4.52389	-2.36668	-0.972527
4.69145	-2.29808	-1.36375
4.859	-2.21022	-1.74155
5.02655	-2.12385	-2.10449
5.1941	-2.05507	-2.45425
5.36165	-2.01409	-2.79472
5.5292	-2.00536	-3.13099
5.69675	-2.02811	2.8147
5.86431	-2.07658	2.47112
6.03186	-2.14003	2.11799
6.19941	-2.20278	1.75402
6.36696	-2.24516	1.38096
6.53451	-2.24611	1.00398
6.70206	-2.18738	0.63163
6.86962	-2.05813	0.274942
7.03717	-1.85762	-0.0540572
7.20472	-1.59459	-0.344049
7.37227	-1.28382	-0.585741
7.53982	-0.941776	-0.772517
7.70737	-0.583515	-0.900433
7.87493	-0.221373	-0.967843
8.04248	0.134747	-0.974954
8.21003	0.476276	-0.923504
8.37758	0.794739	-0.816639
8.54513	1.08089	-0.658987
8.71268	1.3246	-0.4568
8.88024	1.51581	-0.218045
9.04779	1.64632	0.0477545
9.21534	1.71197	0.33001
9.38289	1.71408	0.617883
9.55044	1.65941	0.901226
9.71799	1.55848	1.17137
9.88554	1.42317	1.42156
10.0531	1.26429	1.64697
10.2206	1.09018	1.84438
10.3882	0.906236	2.01175
10.5558	0.715089	2.14767
10.7233	0.517259	2.251
10.8909	0.311815	2.32058
11.0584	0.0969876	2.35497
11.226	-0.129339	2.35244
11.3935	-0.369189	2.31087
11.5611	-0.624046	2.22788
11.7286	-0.894244	2.10089
11.8962	-1.17809	1.92745
12.0637	-1.47064	1.70562
12.2313	-1.76231	1.43467
12.3988	-2.0379	1.11595
12.5664	-2.27717	0.753787
12.7339	-2.4583	0.356116
12.9015	-2.56406	-0.0657653
13.069	-2.58861	-0.498544
13.2366	-2.54074	-0.929148
13.4041	-2.44128	-1.34706
13.5717	-2.31624	-1.7458
13.7392	-2.18974	-2.12317
13.9068	-2.07971	-2.48053
14.0743	-1.99668	-2.82161
14.2419	-1.94447	3.13183
14.4094	-1.92152	2.80833
14.577	-1.92189	2.48662
14.7445	-1.9359	2.16354
14.9121	-1.95077	1.83784
15.0796	-1.95154	1.51061
15.2472	-1.92279	1.18552
15.4147	-1.85112	0.868685
15.5823	-1.72783	0.568102
15.7499	-1.55072	0.292702
15.9174	-1.32423	0.0512193
16.085	-1.05799	-0.148825
16.2525	-0.764469	-0.301792
16.4201	-0.456819	-0.404213
16.5876	-0.147527	-0.454784
16.7552	0.152052	-0.454195
16.9227	0.431617	-0.40495
17.0903	0.68169	-0.311207
17.2578	0.893614	-0.178646
17.4254	1.05994	-0.0143043
17.5929	1.17517	0.173684
17.7605	1.23654	0.376484
17.928	1.24453	0.585065
18.0956	1.20269	0.790743
18.2631	1.11683	0.98563
18.4307	0.99382	1.16292
18.5982	0.840406	1.31697
18.7658	0.662332	1.44317
18.9333	0.463953	1.53778
19.1009	0.248275	1.59768
19.2684	0.017309	1.62013
19.436	-0.227354	1.60271
19.6035	-0.483843	1.54328
19.7711	-0.749198	1.44008
19.9386	-1.01851	1.29199
20.1062	-1.28413	1.09897
20.2737	-1.5353	0.862482
20.4413	-1.75869	0.586037
20.6088	-1.94019	0.275483
20.7764	-2.06815	-0.0611252
20.944	-2.13696	-0.414241
21.1115	-2.14937	-0.774061
21.2791	-2.11626	-1.13195
21.4466	-2.05379	-1.48158
21.6142	-1.97953	-1.81953
21.7817	-1.90912	-2.14515
21.9493	-1.85434	-2.46016
22.1168	-1.82267	-2.76785
22.2844	-1.81749	-3.07243
22.4519	-1.83846	2.90482
22.6195	-1.88175	2.59343
22.787	-1.93986	2.27341
22.9546	-2.00146	1.94317
23.1221	-2.05166	1.60334
23.2897	-2.0732	1.25726
23.4572	-2.04911	0.911166
23.6248	-1.96622	0.573894
23.7923	-1.81841	0.255921
23.9599	-1.60788	-0.0319446
24.1274	-1.34404	-0.2799
24.295	-1.04052	-0.48012
24.4625	-0.712052	-0.627192
24.6301	-0.3723	-0.718104
24.7976	-0.0331232	-0.751986
24.9652	0.295155	-0.729814
25.1327	0.602992	-0.65422
25.3003	0.880954	-0.529418
25.4678	1.11955	-0.361209
25.6354	1.30978	-0.156958
25.8029	1.44439	0.0745897
25.9705	1.5194	0.323725
26.1381	1.53514	0.580427
26.3056	1.49639	0.835107
26.4732	1.41123	1.07928
26.6407	1.28922	1.30596
26.8083	1.13954	1.50976
26.9758	0.969656	1.6867
27.1434	0.784757	1.83386
27.3109	0.587744	1.949
27.4785	0.37966	2.0302
27.646	0.160249	2.07559
27.8136	-0.07145	2.08321
27.9811	-0.316515	2.0509
28.1487	-0.575517	1.97636
28.3162	-0.847777	1.8573
28.4838	-1.13042	1.69169
28.6513	-1.41727	1.47825
28.8189	-1.69778	1.2171
28.9864	-1.95673	0.910513
29.154	-2.17556	0.563633
29.3215	-2.33609	0.184744
29.4891	-2.42606	-0.215236
29.6566	-2.44406	-0.624192
29.8242	-2.40098	-1.03082
29.9917	-2.31682	-1.42647
30.1593	-2.21483	-1.8062
30.3268	-2.11594	-2.16885
30.4944	-2.03563	-2.51631
30.6619	-1.98304	-2.85255
30.8295	-1.96148	3.10061
30.997	-1.9692	2.77169
31.1646	-1.99993	2.43943
31.3322	-2.04309	2.10081
31.4997	-2.08411	1.7549
31.6673	-2.10548	1.40351
31.8348	-2.08902	1.05146
32.0024	-2.01923	0.706463
32.1699	-1.88692	0.378321
32.3375	-1.69126	0.0777029
32.505	-1.43941	-0.185278
32.6726	-1.14394	-0.402207
32.8401	-0.819599	-0.567005
33.0077	-0.480628	-0.676044
33.1752	-0.139596	-0.727953
33.3428	0.192643	-0.723316
33.5103	0.506309	-0.664436
33.6779	0.791974	-0.555214
33.8454	1.04023	-0.401133
34.013	1.24201	-0.209229
34.1805	1.38965	0.0120394
34.3481	1.47833	0.253148
34.5156	1.50725	0.504087
34.6832	1.47998	0.755087
34.8507	1.40371	0.997294
35.0183	1.28752	1.22325
35.1858	1.14062	1.42703
35.3534	0.970829	1.6042
35.5209	0.783841	1.75141
35.6885	0.583125	1.8661
35.856	0.370247	1.94614
36.0236	0.145412	1.98951
36.1911	-0.0919132	1.99417
36.3587	-0.342362	1.95797
36.5263	-0.605975	1.8787
36.6938	-0.881386	1.75424
36.8614	-1.16484	1.58289
37.0289	-1.4491	1.36385
37.1965	-1.72263	1.09789
37.364	-1.96971	0.788063
37.5316	-2.17228	0.440319
37.6991	-2.31412	0.0635313
37.8667	-2.38611	-0.331228
38.0342	-2.39014	-0.732245
38.2018	-2.33933	-1.12909
38.3693	-2.25413	-1.51424
38.5369	-2.15669	-1.88378
38.7044	-2.06612	-2.23735
38.872	-1.99605	-2.5773
39.0395	-1.95416	-2.90781
39.2071	-1.94275	3.04933
39.3746	-1.95938	2.72278
39.5422	-1.99727	2.39154
39.7097	-2.04542	2.05291
39.8773	-2.08885	1.70637
40.0448	-2.10983	1.35418
40.2124	-2.09022	1.00163
40.3799	-2.01505	0.656855
40.5475	-1.87604	0.329964
40.715	-1.67345	0.0317543
40.8826	-1.4154	-0.227708
41.0501	-1.11502	-0.440183
41.2177	-0.787201	-0.599823
41.3852	-0.446069	-0.703237
41.5528	-0.103941	-0.74925
41.7204	0.22856	-0.738607
41.8879	0.541795	-0.673735
42.0555	0.826369	-0.55865
42.223	1.07283	-0.398946
42.3906	1.27208	-0.201781
42.5581	1.41649	0.0242636
42.7257	1.5014	0.269557
42.8932	1.52632	0.524027
43.0608	1.49523	0.777897
43.2283	1.41568	1.02237
43.3959	1.29703	1.25011
43.5634	1.1486	1.45535
43.731	0.978196	1.63379
43.8985	0.791425	1.78224
44.0661	0.591604	1.89827
44.2336	0.380131	1.97984
44.4012	0.157046	2.02501
44.5687	-0.07836	2.03178
44.7363	-0.326921	1.99801
44.9038	-0.588927	1.92147
45.0714	-0.863339	1.79996
45.2389	-1.14682	1.63165
45.4065	-1.43264	1.41552
45.574	-1.70971	1.15205
45.7416	-1.96252	0.843943
45.9091	-2.17279	0.496781
46.0767	-2.32335	0.119182
46.2442	-2.40363	-0.277834
46.4118	-2.41403	-0.682356
46.5793	-2.36669	-1.08354
46.7469	-2.28187	-1.47334
46.9145	-2.18225	-1.84738
47.082	-2.08776	-2.20492
47.2496	-2.01287	-2.54811
47.4171	-1.96592	-2.88101
47.5847	-1.94967	3.07457
47.7522	-1.96203	2.74723
47.9198	-1.99646	2.41585
48.0873	-2.04221	2.07757
48.2549	-2.08455	1.73168
48.4224	-2.10588	1.3802
48.59	-2.08808	1.02818
48.7575	-2.01591	0.683527
48.9251	-1.88062	0.356186
49.0926	-1.68189	0.056884
49.2602	-1.42731	-0.20429
49.4277	-1.12972	-0.419005
49.5953	-0.803921	-0.581289
49.7628	-0.464102	-0.687623
49.9304	-0.122713	-0.736727
50.0979	0.209498	-0.729258
50.2655	0.522811	-0.667579
50.433	0.807813	-0.555644
50.6006	1.05507	-0.398987
50.7681	1.25552	-0.204702
50.9357	1.40153	0.0186972
51.1032	1.48834	0.26164
51.2708	1.51531	0.514093
51.4383	1.48622	0.766288
51.6059	1.4084	1.00941
51.7734	1.29108	1.23604
51.941	1.14349	1.44036
52.1086	0.973443	1.61798
52.2761	0.786581	1.76563
52.4437	0.586297	1.88082
52.6112	0.374076	1.96144
52.7788	0.150045	2.00552
52.9463	-0.086409	2.01103
53.1139	-0.336011	1.97582
53.2814	-0.598913	1.89768
53.449	-0.873894	1.77445
53.6165	-1.15738	1.60436
53.7841	-1.44235	1.38652
53.9516	-1.71746	1.12156
54.1192	-1.96706	0.812409
54.2867	-2.17299	0.464836
54.4543	-2.31861	0.0876143
54.6218	-2.39414	-0.308201
54.7894	-2.40086	-0.710805
54.9569	-2.35148	-1.10959
55.1245	-2.26638	-1.49679
55.292	-2.16796	-1.86832
55.4596	-2.07569	-2.22364
55.6271	-2.00355	-2.56503
55.7947	-1.95951	-2.89661
55.9622	-1.94605	3.0598
56.1298	-1.96089	2.73285
56.2973	-1.99735	2.40149
56.4649	-2.04451	2.06293
56.6324	-2.08749	1.71659
56.8	-2.1086	1.36463
56.9675	-2.0897	1.01223
57.1351	-2.01572	0.667449
57.3027	-1.87817	0.340325
57.4702	-1.67709	0.0416306
57.6378	-1.42038	-0.218557
57.8053	-1.12107	-0.431961
57.9729	-0.794006	-0.592682
58.1404	-0.453353	-0.697279
58.308	-0.111479	-0.744537
58.4755	0.220945	-0.735166
58.6431	0.534248	-0.671566
58.8106	0.819029	-0.55773
58.9782	1.06585	-0.399228
59.1457	1.26561	-0.203193
59.3133	1.41068	0.0218216
59.4808	1.49637	0.266207
59.6484	1.52213	0.519905
59.8159	1.49185	0.773141
59.9835	1.41298	1.01711
60.151	1.29485	1.24444
60.3186	1.14674	1.44935
60.4861	0.976469	1.62749
60.6537	0.789648	1.77565
60.8212	0.589631	1.89137
60.9888	0.37785	1.97258
61.1563	0.15438	2.01734
61.3239	-0.0814499	2.02362
61.4914	-0.330432	1.98931
61.659	-0.592802	1.91214
61.8265	-0.86745	1.78997
61.9941	-1.15095	1.62096
62.1616	-1.43645	1.40416
62.3292	-1.71277	1.14011
62.4967	-1.96434	0.831583
62.6643	-2.17291	0.484253
62.8319	-2.32154	0.106794
62.9994	-2.39995	-0.289759
63.167	-2.4089	-0.693534
63.3345	-2.36074	-1.09378
63.5021	-2.2758	-1.48257
63.6696	-2.17664	-1.85562
63.8372	-2.08302	-2.21228
64.0047	-2.0092	-2.55476
64.1723	-1.96339	-2.88715
64.3398	-1.94824	3.06876
64.5074	-1.96158	2.74157
64.6749	-1.99681	2.4102
64.8425	-2.04312	2.07181
65.01	-2.08571	1.72575
65.1776	-2.10696	1.37407
65.3451	-2.08873	1.02191
65.5127	-2.01585	0.677198
65.6802	-1.87967	0.34994
65.8478	-1.68002	0.0508737
66.0153	-1.42459	-0.209915
66.1829	-1.12633	-0.424116
66.3504	-0.800026	-0.585786
66.518	-0.459875	-0.691437
66.6855	-0.118292	-0.739815
66.8531	0.214005	-0.731597
67.0206	0.527316	-0.669162
67.1882	0.812233	-0.556478
67.3557	1.05932	-0.399093
67.5233	1.2595	-0.204118
67.6908	1.40514	0.0199181
67.8584	1.49151	0.263431
68.026	1.51801	0.516375
68.1935	1.48845	0.768981
68.3611	1.41022	1.01244
68.5286	1.29257	1.23935
68.6962	1.14478	1.4439
68.8637	0.974638	1.62172
69.0313	0.78779	1.76958
69.1988	0.587608	1.88497
69.3664	0.375559	1.96583
69.5339	0.151747	2.01017
69.7015	-0.0844642	2.01598
69.869	-0.333825	1.98113
70.0366	-0.596521	1.90337
70.2041	-0.871374	1.78055
70.3717	-1.15487	1.61088
70.5392	-1.44005	1.39345
70.7068	-1.71564	1.12884
70.8743	-1.96602	0.819933
71.0419	-2.17299	0.47245
71.2094	-2.31979	0.0951301
71.377	-2.39645	-0.300979
71.5445	-2.40404	-0.704046
71.7121	-2.35512	-1.10341
71.8796	-2.27008	-1.49123
72.0472	-2.17137	-1.86336
72.2147	-2.07856	-2.21921
72.3823	-2.00577	-2.56102
72.5498	-1.96104	-2.89292
72.7174	-1.94692	3.06329
72.8849	-1.96118	2.73625
73.0525	-1.99716	2.40487
73.2201	-2.04398	2.06638
73.3876	-2.08681	1.72015
73.5552	-2.10798	1.36829
73.7227	-2.08934	1.01598
73.8903	-2.01579	0.671227
74.0578	-1.87877	0.344048
74.2254	-1.67824	0.0452067
74.3929	-1.42202	-0.215216
74.5605	-1.12312	-0.428931
74.728	-0.796347	-0.590021
74.8956	-0.455886	-0.695028
75.0631	-0.114122	-0.742721
75.2307	0.218255	-0.733797
75.3982	0.531563	-0.670648
75.5658	0.816398	-0.557258
75.7333	1.06332	-0.399189
75.9009	1.26325	-0.203563
76.0684	1.40854	0.0210731
76.236	1.4945	0.265122
76.4035	1.52054	0.518529
76.5711	1.49054	0.771523
76.7386	1.41192	1.0153
76.9062	1.29398	1.24247
77.0737	1.14599	1.44724
77.2413	0.975767	1.62525
77.4088	0.788934	1.7733
77.5764	0.588852	1.88889
77.7439	0.376966	1.96997
77.9115	0.153363	2.01456
78.079	-0.0826158	2.02067
78.2466	-0.331745	1.98614
78.4142	-0.594243	1.90875
78.5817	-0.868972	1.78632
78.7493	-1.15247	1.61706
78.9168	-1.43785	1.40001
79.0844	-1.71389	1.13574
79.2519	-1.965	0.827068
79.4195	-2.17295	0.479677
79.587	-2.32087	0.102271
79.7546	-2.3986	-0.294111
79.9221	-2.40702	-0.697614
80.0897	-2.35856	-1.09752
80.2572	-2.27359	-1.48593
80.4248	-2.1746	-1.85863
80.5923	-2.08129	-2.21497
80.7599	-2.00787	-2.5572
80.9274	-1.96248	-2.88939
81.095	-1.94773	3.06663
81.2625	-1.96143	2.7395
81.4301	-1.99695	2.40813
81.5976	-2.04346	2.0697
81.7652	-2.08615	1.72357
81.9327	-2.10736	1.37182
82.1003	-2.08897	1.0196
82.2678	-2.01583	0.67487
82.4354	-1.87933	0.347642
82.6029	-1.67933	0.0486631
82.7705	-1.4236	-0.211984
82.938	-1.12508	-0.425996
83.1056	-0.798594	-0.58744
83.2731	-0.458322	-0.69284
83.4407	-0.116667	-0.740951
83.6083	0.215661	-0.732459
83.7758	0.528972	-0.669745
83.9434	0.813857	-0.556786
84.1109	1.06088	-0.399134
84.2785	1.26096	-0.203906
84.446	1.40647	0.0203651
84.6136	1.49268	0.264087
84.7811	1.519	0.517213
84.9487	1.48926	0.76997
85.1162	1.41088	1.01355
85.2838	1.29313	1.24056
85.4513	1.14525	1.4452
85.6189	0.97508	1.6231
85.7864	0.788237	1.77103
85.954	0.588094	1.8865
86.1215	0.376108	1.96744
86.2891	0.152377	2.01188
86.4566	-0.0837435	2.01781
86.6242	-0.333014	1.98308
86.7917	-0.595633	1.90547
86.9593	-0.870439	1.7828
87.1268	-1.15393	1.61329
87.2944	-1.43919	1.39601
87.4619	-1.71496	1.13153
87.6295	-1.96563	0.822713
87.797	-2.17298	0.475266
87.9646	-2.32021	0.0979113
88.1321	-2.39729	-0.298305
88.2997	-2.4052	-0.701542
88.4672	-2.35646	-1.10112
88.6348	-2.27145	-1.48917
88.8024	-2.17263	-1.86152
88.9699	-2.07963	-2.21756
89.1375	-2.00659	-2.55954
89.305	-1.9616	-2.89155
89.4726	-1.94724	3.06459
89.6401	-1.96127	2.73751
89.8077	-1.99708	2.40614
89.9752	-2.04378	2.06767
90.1428	-2.08656	1.72147
90.3103	-2.10774	1.36966
90.4779	-2.0892	1.01739
90.6454	-2.01581	0.672641
90.813	-1.87899	0.345443
90.9805	-1.67867	0.0465475
91.1481	-1.42264	-0.213962
91.3156	-1.12388	-0.427793
91.4832	-0.79722	-0.589021
91.6507	-0.456832	-0.69418
91.8183	-0.115111	-0.742036
91.9858	0.217248	-0.733279
92.1534	0.530557	-0.670299
92.3209	0.815412	-0.557077
92.4885	1.06237	-0.399169
92.656	1.26236	-0.203698
92.8236	1.40774	0.020797
92.9911	1.49379	0.264719
93.1587	1.51994	0.518017
93.3262	1.49005	0.77092
93.4938	1.41152	1.01462
93.6613	1.29365	1.24173
93.8289	1.14571	1.44645
93.9965	0.975501	1.62442
94.164	0.788664	1.77241
94.3316	0.588558	1.88796
94.4991	0.376634	1.96899
94.6667	0.152981	2.01352
94.8342	-0.0830533	2.01956
95.0018	-0.332238	1.98495
95.1693	-0.594783	1.90748
95.3369	-0.869542	1.78495
95.5044	-1.15304	1.61559
95.672	-1.43837	1.39846
95.8395	-1.71431	1.13411
96.0071	-1.96524	0.825378
96.1746	-2.17296	0.477965
96.3422	-2.32061	0.100578
96.5097	-2.39809	-0.29574
96.6773	-2.40631	-0.69914
96.8448	-2.35775	-1.09892
97.0124	-2.27276	-1.48719
97.1799	-2.17383	-1.85975
97.3475	-2.08064	-2.21598
97.515	-2.00737	-2.55811
97.6826	-1.96214	-2.89023
97.8501	-1.94754	3.06584
98.0177	-1.96137	2.73873
98.1852	-1.997	2.40735
98.3528	-2.04358	2.06891
98.5203	-2.08631	1.72275
98.6879	-2.10751	1.37098
98.8554	-2.08906	1.01874
99.023	-2.01582	0.674003
99.1906	-1.8792	0.346786
99.3581	-1.67907	0.0478397
99.5257	-1.42322	-0.212754
99.6932	-1.12461	-0.426695
99.8608	-0.79806	-0.588056
100.028	-0.457742	-0.693362
100.196	-0.116062	-0.741374
100.363	0.216279	-0.732779
100.531	0.529589	-0.669962
100.699	0.814462	-0.5569
100.866	1.06146	-0.399148
101.034	1.26151	-0.203825
101.201	1.40696	0.0205326
101.369	1.49311	0.264332
101.536	1.51937	0.517525
101.704	1.48957	0.770339
101.871	1.41113	1.01396
102.039	1.29333	1.24102
102.206	1.14543	1.44569
102.374	0.975244	1.62361
102.542	0.788404	1.77157
102.709	0.588275	1.88707
102.877	0.376313	1.96804
103.044	0.152612	2.01252
103.212	-0.0834749	2.01849
103.379	-0.332712	1.98381
103.547	-0.595302	1.90625
103.714	-0.87009	1.78364
103.882	-1.15359	1.61419
104.05	-1.43887	1.39696
104.217	-1.71471	1.13253
104.385	-1.96548	0.82375
104.552	-2.17297	0.476316
104.72	-2.32037	0.0989486
104.887	-2.3976	-0.297307
105.055	-2.40563	-0.700608
105.222	-2.35696	-1.10026
105.39	-2.27196	-1.4884
105.558	-2.17309	-1.86083
105.725	-2.08002	-2.21695
105.893	-2.00689	-2.55898
106.06	-1.96181	-2.89104
106.228	-1.94736	3.06508
106.395	-1.96131	2.73799
106.563	-1.99705	2.40661
106.73	-2.0437	2.06815
106.898	-2.08646	1.72197
107.065	-2.10765	1.37018
107.233	-2.08915	1.01791
107.401	-2.01581	0.67317
107.568	-1.87907	0.345965
107.736	-1.67882	0.0470494
107.903	-1.42286	-0.213493
108.071	-1.12416	-0.427367
108.238	-0.797546	-0.588646
108.406	-0.457186	-0.693863
108.573	-0.11548	-0.741779
108.741	0.216871	-0.733085
108.909	0.530181	-0.670168
109.076	0.815043	-0.557008
109.244	1.06202	-0.399161
109.411	1.26203	-0.203747
109.579	1.40744	0.0206941
109.746	1.49353	0.264569
109.914	1.51972	0.517826
110.081	1.48986	0.770694
110.249	1.41137	1.01436
110.417	1.29353	1.24145
110.584	1.1456	1.44615
110.752	0.975401	1.6241
110.919	0.788563	1.77209
111.087	0.588448	1.88762
111.254	0.376509	1.96862
111.422	0.152838	2.01313
111.589	-0.0832171	2.01914
111.757	-0.332422	1.98451
111.924	-0.594985	1.907
112.092	-0.869755	1.78444
112.26	-1.15325	1.61505
112.427	-1.43857	1.39787
112.595	-1.71446	1.1335
112.762	-1.96534	0.824745
112.93	-2.17297	0.477324
113.097	-2.32052	0.099945
113.265	-2.3979	-0.296349
113.432	-2.40605	-0.69971
113.6	-2.35744	-1.09944
113.768	-2.27245	-1.48766
113.935	-2.17354	-1.86017
114.103	-2.0804	-2.21636
114.27	-2.00719	-2.55845
114.438	-1.96201	-2.89055
114.605	-1.94747	3.06554
114.773	-1.96135	2.73844
114.94	-1.99702	2.40706
115.108	-2.04363	2.06861
115.276	-2.08637	1.72245
115.443	-2.10757	1.37067
115.611	-2.0891	1.01842
115.778	-2.01582	0.673679
115.946	-1.87915	0.346467
116.113	-1.67897	0.0475324
116.281	-1.42308	-0.213041
116.448	-1.12444	-0.426956
116.616	-0.79786	-0.588285
116.783	-0.457526	-0.693557
116.951	-0.115836	-0.741531
117.119	0.216509	-0.732898
117.286	0.529819	-0.670042
117.454	0.814688	-0.556942
117.621	1.06168	-0.399153
117.789	1.26171	-0.203795
117.956	1.40715	0.0205953
118.124	1.49327	0.264424
118.291	1.5195	0.517642
118.459	1.48968	0.770477
118.627	1.41122	1.01412
118.794	1.29341	1.24118
118.962	1.14549	1.44587
119.129	0.975305	1.6238
119.297	0.788466	1.77177
119.464	0.588343	1.88728
119.632	0.376389	1.96827
119.799	0.1527	2.01276
119.967	-0.0833746	2.01874
120.135	-0.332599	1.98408
120.302	-0.595179	1.90654
120.47	-0.86996	1.78395
120.637	-1.15346	1.61452
120.805	-1.43875	1.39732
120.972	-1.71461	1.13291
121.14	-1.96542	0.824137
121.307	-2.17297	0.476708
121.475	-2.32043	0.099336
121.642	-2.39772	-0.296935
121.81	-2.4058	-0.700259
121.978	-2.35715	-1.09994
122.145	-2.27215	-1.48811
122.313	-2.17327	-1.86058
122.48	-2.08017	-2.21672
122.648	-2.00701	-2.55877
122.815	-1.96189	-2.89085
122.983	-1.9474	3.06526
123.15	-1.96132	2.73816
123.318	-1.99704	2.40679
123.486	-2.04367	2.06833
123.653	-2.08642	1.72216
123.821	-2.10762	1.37037
123.988	-2.08913	1.01811
124.156	-2.01582	0.673368
124.323	-1.8791	0.34616
124.491	-1.67888	0.0472371
124.658	-1.42295	-0.213318
124.826	-1.12427	-0.427207
124.993	-0.797668	-0.588506
125.161	-0.457318	-0.693744
125.329	-0.115618	-0.741683
125.496	0.216731	-0.733012
125.664	0.53004	-0.670119
125.831	0.814905	-0.556982
125.999	1.06189	-0.399158
126.166	1.26191	-0.203766
126.334	1.40732	0.0206557
126.501	1.49343	0.264512
126.669	1.51964	0.517755
126.837	1.48979	0.77061
127.004	1.41131	1.01427
127.172	1.29348	1.24135
127.339	1.14556	1.44604
127.507	0.975364	1.62399
127.674	0.788525	1.77196
127.842	0.588407	1.88749
128.009	0.376462	1.96848
128.177	0.152784	2.01299
128.345	-0.0832783	2.01899
128.512	-0.332491	1.98434
128.68	-0.59506	1.90682
128.847	-0.869834	1.78425
129.015	-1.15333	1.61484
129.182	-1.43864	1.39766
129.35	-1.71452	1.13327
129.517	-1.96537	0.824509
129.685	-2.17297	0.477084
129.852	-2.32048	0.0997083
130.02	-2.39783	-0.296577
130.188	-2.40595	-0.699923
130.355	-2.35733	-1.09963
130.523	-2.27233	-1.48784
130.69	-2.17344	-1.86033
130.858	-2.08031	-2.2165
131.025	-2.00712	-2.55857
