#t	omega	theta
0	0	0.75
0.167552	1.42523e-07	0.763864
0.335103	1.12297e-06	0.755337
0.502655	3.70539e-06	0.725351
0.670206	8.54785e-06	0.675639
0.837758	1.6187e-05	0.608505
1.00531	2.70321e-05	0.526557
1.17286	4.13646e-05	0.432466
1.34041	5.93403e-05	0.328782
1.50796	8.09876e-05	0.21785
1.67552	0.000106201	0.101791
1.84307	0.000134725	-0.0174331
2.01062	0.000166136	-0.137919
2.17817	0.000199818	-0.257693
2.34572	0.000234939	-0.374598
2.51327	0.000270444	-0.486208
2.68083	0.000305068	-0.589809
2.84838	0.000337368	-0.682458
3.01593	0.000365813	-0.761143
3.18348	0.000388887	-0.823022
3.35103	0.000405233	-0.865729
3.51858	0.000413787	-0.887659
3.68614	0.000413886	-0.888191
3.85369	0.000405321	-0.86777
4.02124	0.00038832	-0.827825
4.18879	0.000363466	-0.770552
4.35634	0.000331572	-0.6986
4.52389	0.000293547	-0.614752
4.69145	0.000250277	-0.521646
4.859	0.000202547	-0.421591
5.02655	0.000150997	-0.31648
5.1941	9.61286e-05	-0.207801
5.36165	3.834e-05	-0.0967045
5.5292	-2.20125e-05	0.015865
5.69675	-8.45397e-05	0.129027
5.86431	-0.000148737	0.241809
6.03186	-0.000213906	0.353006
6.19941	-0.000279084	0.461059
6.36696	-0.000343	0.563989
6.53451	-0.000404072	0.659393
6.70206	-0.000460446	0.744527
6.86962	-0.000510109	0.816485
7.03717	-0.000551051	0.872474
7.20472	-0.000581478	0.910133
7.37227	-0.000600019	0.927854
7.53982	-0.000605905	0.925018
7.70737	-0.000599049	0.902092
7.87493	-0.000580027	0.860549
8.04248	-0.000549958	0.802643
8.21003	-0.00051031	0.731088
8.37758	-0.000462692	0.648718
8.54513	-0.000408663	0.558201
8.71268	-0.000349594	0.461838
8.88024	-0.000286597	0.361469
9.04779	-0.000220507	0.258467
9.21534	-0.000151922	0.153811
9.38289	-8.12611e-05	0.0481899
9.55044	-8.86219e-06	-0.0578488
9.71799	6.49267e-05	-0.163758
9.88554	0.000139646	-0.268847
10.0531	0.000214633	-0.372151
10.2206	0.000288945	-0.47234
10.3882	0.000361312	-0.567656
10.5558	0.000430131	-0.655929
10.7233	0.000493509	-0.734656
10.8909	0.000549381	-0.801177
11.0584	0.000595677	-0.852921
11.226	0.000630543	-0.887702
11.3935	0.000652557	-0.904011
11.5611	0.000660913	-0.901231
11.7286	0.000655517	-0.879734
11.8962	0.000636971	-0.840818
12.0637	0.000606461	-0.786516
12.2313	0.000565564	-0.719313
12.3988	0.000516032	-0.641837
12.5664	0.000459592	-0.556592
12.7339	0.000397794	-0.46577
12.9015	0.00033192	-0.371142
13.069	0.000262961	-0.27405
13.2366	0.000191638	-0.175448
13.4041	0.000118461	-0.076004
13.5717	4.38131e-05	0.0237854
13.7392	-3.19533e-05	0.123461
13.9068	-0.000108422	0.222472
14.0743	-0.000185019	0.320058
14.2419	-0.000260934	0.415156
14.4094	-0.000335066	0.506335
14.577	-0.000406	0.591787
14.7445	-0.000472035	0.669373
14.9121	-0.000531261	0.736744
15.0796	-0.000581704	0.791531
15.2472	-0.000621503	0.83159
15.4147	-0.00064912	0.855254
15.5823	-0.000663525	0.861561
15.7499	-0.000664321	0.850386
15.9174	-0.000651785	0.822458
16.085	-0.000626802	0.779256
16.2525	-0.000590726	0.722798
16.4201	-0.000545191	0.655386
16.5876	-0.000491907	0.57935
16.7552	-0.000432504	0.496847
16.9227	-0.000368403	0.409716
17.0903	-0.000300766	0.319428
17.2578	-0.000230483	0.227085
17.4254	-0.000158213	0.133482
17.5929	-8.44422e-05	0.0391974
17.7605	-9.57195e-06	-0.0552952
17.928	6.59963e-05	-0.149513
18.0956	0.00014177	-0.242854
18.2631	0.000217087	-0.334497
18.4307	0.000291048	-0.423328
18.5982	0.000362483	-0.507903
18.7658	0.000429944	-0.586457
18.9333	0.000491753	-0.656963
19.1009	0.000546092	-0.717266
19.2684	0.000591147	-0.765261
19.436	0.000625285	-0.79911
19.6035	0.00064723	-0.817464
19.7711	0.000656219	-0.819632
19.9386	0.000652089	-0.80568
20.1062	0.000635288	-0.776412
20.2737	0.000606795	-0.733261
20.4413	0.000567977	-0.678097
20.6088	0.000520416	-0.613
20.7764	0.000465734	-0.540051
20.944	0.000405449	-0.461159
21.1115	0.00034088	-0.377951
21.2791	0.000273105	-0.291732
21.4466	0.000202956	-0.203491
21.6142	0.000131064	-0.113964
21.7817	5.79168e-05	-0.0237099
21.9493	-1.6062e-05	0.0667853
22.1168	-9.04304e-05	0.157007
22.2844	-0.000164648	0.246315
22.4519	-0.000238003	0.333858
22.6195	-0.000309563	0.418511
22.787	-0.000378142	0.498852
22.9546	-0.000442312	0.573173
23.1221	-0.000500454	0.639554
23.2897	-0.000550854	0.695982
23.4572	-0.000591837	0.740522
23.6248	-0.000621937	0.771514
23.7923	-0.00064005	0.787767
23.9599	-0.000645569	0.788702
24.1274	-0.000638452	0.77443
24.295	-0.000619218	0.745729
24.4625	-0.000588862	0.70394
24.6301	-0.000548725	0.650789
24.7976	-0.000500329	0.58819
24.9652	-0.000445218	0.518056
25.1327	-0.000384833	0.442144
25.3003	-0.000320426	0.361962
25.4678	-0.00025302	0.278729
25.6354	-0.00018342	0.193385
25.8029	-0.00011224	0.106644
25.9705	-3.99719e-05	0.0190684
26.1381	3.29456e-05	-0.0688392
26.3056	0.000106049	-0.156541
26.4732	0.000178775	-0.243376
26.6407	0.000250395	-0.328478
26.8083	0.000319967	-0.410728
26.9758	0.000386317	-0.488723
27.1434	0.000448049	-0.560804
27.3109	0.000503598	-0.625116
27.4785	0.000551327	-0.679732
27.646	0.000589658	-0.72281
27.8136	0.000617227	-0.752775
27.9811	0.00063303	-0.7685
28.1487	0.000636539	-0.76944
28.3162	0.000627769	-0.755699
28.4838	0.000607261	-0.728007
28.6513	0.000576005	-0.687625
28.8189	0.00053531	-0.636179
28.9864	0.000486651	-0.575477
29.154	0.000431522	-0.507333
29.3215	0.000371314	-0.433423
29.4891	0.000307239	-0.355192
29.6566	0.00024029	-0.27382
29.8242	0.000171253	-0.190229
29.9917	0.000100736	-0.105129
30.1593	2.92318e-05	-0.01909
30.3268	-4.28161e-05	0.0673716
30.4944	-0.000114935	0.153704
30.6619	-0.000186553	0.239232
30.8295	-0.000256939	0.323086
30.997	-0.000325156	0.404149
31.1646	-0.000390043	0.481037
31.3322	-0.000450229	0.552114
31.4997	-0.000504189	0.615564
31.6673	-0.000550334	0.669501
31.8348	-0.000587143	0.712124
32.0024	-0.000613305	0.741896
32.1699	-0.000627866	0.757709
32.3375	-0.000630337	0.75902
32.505	-0.000620754	0.745912
32.6726	-0.000599661	0.719077
32.8401	-0.000568036	0.679722
33.0077	-0.000527166	0.629414
33.1752	-0.000478495	0.569903
33.3428	-0.000423487	0.50295
33.5103	-0.000363505	0.430192
33.6779	-0.000299737	0.353048
33.8454	-0.000233162	0.272681
34.013	-0.000164555	0.19001
34.1805	-9.45195e-05	0.105747
34.3481	-2.35472e-05	0.0204689
34.5156	4.79157e-05	-0.0652978
34.6832	0.000119395	-0.150992
34.8507	0.000190318	-0.235933
35.0183	0.000259954	-0.319249
35.1858	0.000327373	-0.399824
35.3534	0.000391424	-0.476282
35.5209	0.000450755	-0.547002
35.6885	0.00050386	-0.610184
35.856	0.00054918	-0.663959
36.0236	0.000585217	-0.706543
36.1911	0.00061069	-0.73641
36.3587	0.000624666	-0.752455
36.5263	0.00062667	-0.754127
36.6938	0.000616744	-0.741492
36.8614	0.000595429	-0.715218
37.0289	0.000563695	-0.676481
37.1965	0.000522811	-0.626817
37.364	0.000474208	-0.567949
37.5316	0.00041933	-0.501613
37.6991	0.000359528	-0.429431
37.8667	0.000295978	-0.352811
38.0342	0.000229651	-0.272914
38.2018	0.000161317	-0.190657
38.3693	9.15763e-05	-0.106758
38.5369	2.09203e-05	-0.0217984
38.7044	-5.02051e-05	0.0636895
38.872	-0.000121326	0.14914
39.0395	-0.00019187	0.233868
39.2071	-0.00026111	0.317001
39.3746	-0.000328119	0.397425
39.5422	-0.000391754	0.473768
39.7097	-0.00045067	0.544412
39.8773	-0.000503376	0.607565
40.0448	-0.00054832	0.661364
40.2124	-0.00058402	0.70403
40.3799	-0.000609203	0.734038
40.5475	-0.000622945	0.750279
40.715	-0.000624776	0.752197
40.8826	-0.000614737	0.739847
41.0501	-0.000593365	0.713882
41.2177	-0.000561624	0.675463
41.3852	-0.000520776	0.626114
41.5528	-0.000472242	0.567545
41.7204	-0.00041746	0.501485
41.8879	-0.000357773	0.429548
42.0555	-0.000294352	0.353142
42.223	-0.000228166	0.273428
42.3906	-0.00015998	0.191324
42.5581	-9.03959e-05	0.107551
42.7257	-1.99028e-05	0.0226947
42.8932	5.10535e-05	-0.0627101
43.0608	0.000122	-0.148095
43.2283	0.000192365	-0.232775
43.3959	0.000261423	-0.315875
43.5634	0.000328251	-0.396282
43.731	0.000391708	-0.472625
43.8985	0.000450454	-0.54329
44.0661	0.000503001	-0.606484
44.2336	0.000547803	-0.660347
44.4012	0.000583383	-0.703099
44.5687	0.000608471	-0.733213
44.7363	0.000622143	-0.749579
44.9038	0.00062393	-0.751635
45.0714	0.000613872	-0.739429
45.2389	0.000592505	-0.71361
45.4065	0.000560786	-0.675333
45.574	0.000519975	-0.626114
45.7416	0.00047149	-0.567661
45.9091	0.000416764	-0.501702
46.0767	0.000357139	-0.429848
46.2442	0.000293784	-0.353509
46.4118	0.000227666	-0.273846
46.5793	0.000159551	-0.19178
46.7469	9.00381e-05	-0.108032
46.9145	1.96171e-05	-0.0231919
47.082	-5.12668e-05	0.062206
47.2496	-0.000122141	0.147592
47.4171	-0.000192435	0.232279
47.5847	-0.000261424	0.315394
47.7522	-0.000328186	0.395824
47.9198	-0.000391582	0.472197
48.0873	-0.000450274	0.542899
48.2549	-0.000502774	0.606138
48.4224	-0.00054754	0.660053
48.59	-0.000583093	0.702864
48.7575	-0.000608163	0.733042
48.9251	-0.000621829	0.749474
49.0926	-0.00062362	0.751596
49.2602	-0.000613573	0.739453
49.4277	-0.000592223	0.713692
49.5953	-0.000560526	0.675465
49.7628	-0.000519742	0.626289
49.9304	-0.000471284	0.567869
50.0979	-0.000416587	0.501933
50.2655	-0.00035699	0.430096
50.433	-0.000293665	0.353765
50.6006	-0.000227575	0.274103
50.7681	-0.000159487	0.192034
50.9357	-9.00014e-05	0.108279
51.1032	-1.96065e-05	0.0234271
51.2708	5.12527e-05	-0.0619851
51.4383	0.000122103	-0.147388
51.6059	0.000192377	-0.232095
51.7734	0.000261348	-0.315232
51.941	0.000328094	-0.395687
52.1086	0.000391478	-0.472087
52.2761	0.000450162	-0.542818
52.4437	0.000502659	-0.606088
52.6112	0.000547425	-0.660036
52.7788	0.000582983	-0.702879
52.9463	0.000608062	-0.733089
53.1139	0.000621739	-0.749551
53.2814	0.000623543	-0.751699
53.449	0.000613511	-0.739579
53.6165	0.000592177	-0.713835
53.7841	0.000560495	-0.675619
53.9516	0.000519725	-0.626449
54.1192	0.00047128	-0.568031
54.2867	0.000416596	-0.502093
54.4543	0.000357011	-0.430249
54.6218	0.000293695	-0.353909
54.7894	0.000227614	-0.274236
54.9569	0.000159535	-0.192154
55.1245	9.00563e-05	-0.108386
55.292	1.96674e-05	-0.0235202
55.4596	-5.11869e-05	0.0619068
55.6271	-0.000122034	0.147325
55.7947	-0.000192306	0.232048
55.9622	-0.000261277	0.315202
56.1298	-0.000328025	0.395673
56.2973	-0.000391413	0.472091
56.4649	-0.000450103	0.54284
56.6324	-0.000502609	0.606128
56.8	-0.000547385	0.660092
56.9675	-0.000582954	0.702951
57.1351	-0.000608045	0.733174
57.3027	-0.000621734	0.749648
57.4702	-0.00062355	0.751804
57.6378	-0.000613529	0.739688
57.8053	-0.000592204	0.713945
57.9729	-0.000560531	0.675728
58.1404	-0.000519768	0.626554
58.308	-0.000471328	0.568128
58.4755	-0.000416648	0.502182
58.6431	-0.000357066	0.430328
58.8106	-0.000293753	0.353978
58.9782	-0.000227673	0.274295
59.1457	-0.000159595	0.192202
59.3133	-9.01158e-05	0.108424
59.4808	-1.97261e-05	0.0235475
59.6484	5.11299e-05	-0.0618896
59.8159	0.00012198	-0.147318
59.9835	0.000192255	-0.232051
60.151	0.00026123	-0.315214
60.3186	0.000327984	-0.395695
60.4861	0.000391379	-0.472122
60.6537	0.000450077	-0.54288
60.8212	0.000502591	-0.606177
60.9888	0.000547376	-0.660148
61.1563	0.000582954	-0.703014
61.3239	0.000608054	-0.733241
61.4914	0.000621752	-0.749717
61.659	0.000623575	-0.751874
61.8265	0.000613561	-0.739758
61.9941	0.000592241	-0.714012
62.1616	0.000560572	-0.67579
62.3292	0.000519811	-0.62661
62.4967	0.000471373	-0.568178
62.6643	0.000416694	-0.502224
62.8319	0.000357112	-0.430363
62.9994	0.000293798	-0.354006
63.167	0.000227718	-0.274316
63.3345	0.000159637	-0.192217
63.5021	9.01569e-05	-0.108432
63.6696	1.97649e-05	-0.0235496
63.8372	-5.10938e-05	0.0618932
64.0047	-0.000121947	0.147327
64.1723	-0.000192226	0.232065
64.3398	-0.000261205	0.315233
64.5074	-0.000327964	0.395719
64.6749	-0.000391365	0.47215
64.8425	-0.000450068	0.542912
65.01	-0.000502587	0.606212
65.1776	-0.000547378	0.660186
65.3451	-0.000582962	0.703053
65.5127	-0.000608067	0.733282
65.6802	-0.00062177	0.749758
65.8478	-0.000623597	0.751913
66.0153	-0.000613585	0.739794
66.1829	-0.000592268	0.714045
66.3504	-0.0005606	0.67582
66.518	-0.00051984	0.626636
66.6855	-0.000471403	0.568199
66.8531	-0.000416723	0.502241
67.0206	-0.000357141	0.430376
67.1882	-0.000293826	0.354014
67.3557	-0.000227744	0.27432
67.5233	-0.000159662	0.192218
67.6908	-9.018e-05	0.10843
67.8584	-1.97861e-05	0.0235447
68.026	5.10748e-05	-0.0619007
68.1935	0.00012193	-0.147337
68.3611	0.000192211	-0.232077
68.5286	0.000261194	-0.315247
68.6962	0.000327956	-0.395735
68.8637	0.000391359	-0.472168
69.0313	0.000450066	-0.542931
69.1988	0.000502588	-0.606232
69.3664	0.000547382	-0.660207
69.5339	0.000582969	-0.703074
69.7015	0.000608077	-0.733302
69.869	0.000621781	-0.749777
70.0366	0.00062361	-0.751932
70.2041	0.0006136	-0.739811
70.3717	0.000592283	-0.71406
70.5392	0.000560616	-0.675832
70.7068	0.000519856	-0.626645
70.8743	0.000471419	-0.568207
71.0419	0.000416738	-0.502246
71.2094	0.000357155	-0.430379
71.377	0.00029384	-0.354015
71.5445	0.000227757	-0.27432
71.7121	0.000159674	-0.192216
71.8796	9.0191e-05	-0.108426
72.0472	1.97959e-05	-0.0235397
72.2147	-5.10662e-05	0.0619067
72.3823	-0.000121923	0.147344
72.5498	-0.000192206	0.232085
72.7174	-0.00026119	0.315256
72.8849	-0.000327953	0.395744
73.0525	-0.000391358	0.472177
73.2201	-0.000450066	0.542941
73.3876	-0.00050259	0.606241
73.5552	-0.000547385	0.660217
73.7227	-0.000582973	0.703084
73.8903	-0.000608082	0.733311
74.0578	-0.000621788	0.749785
74.2254	-0.000623617	0.751939
74.3929	-0.000613607	0.739817
74.5605	-0.000592291	0.714065
74.728	-0.000560624	0.675836
74.8956	-0.000519864	0.626648
75.0631	-0.000471426	0.568208
75.2307	-0.000416745	0.502246
75.3982	-0.000357162	0.430378
75.5658	-0.000293846	0.354014
75.7333	-0.000227763	0.274318
75.9009	-0.000159679	0.192213
76.0684	-9.01954e-05	0.108423
76.236	-1.97997e-05	0.0235363
76.4035	5.1063e-05	-0.0619104
76.5711	0.00012192	-0.147347
76.7386	0.000192204	-0.232089
76.9062	0.000261189	-0.31526
77.0737	0.000327952	-0.395748
77.2413	0.000391358	-0.472181
77.4088	0.000450067	-0.542945
77.5764	0.000502591	-0.606245
77.7439	0.000547387	-0.66022
77.9115	0.000582975	-0.703087
78.079	0.000608085	-0.733314
78.2466	0.000621791	-0.749788
78.4142	0.000623621	-0.751941
78.5817	0.000613611	-0.739819
78.7493	0.000592294	-0.714066
78.9168	0.000560627	-0.675836
79.0844	0.000519867	-0.626648
79.2519	0.000471429	-0.568208
79.4195	0.000416748	-0.502246
79.587	0.000357164	-0.430377
79.7546	0.000293848	-0.354012
79.9221	0.000227765	-0.274316
80.0897	0.000159681	-0.192211
80.2572	9.01968e-05	-0.108421
80.4248	1.98008e-05	-0.0235345
80.5923	-5.10622e-05	0.0619123
80.7599	-0.00012192	0.147349
80.9274	-0.000192204	0.232091
81.095	-0.000261189	0.315262
81.2625	-0.000327953	0.39575
81.4301	-0.000391359	0.472183
81.5976	-0.000450067	0.542946
81.7652	-0.000502592	0.606247
81.9327	-0.000547388	0.660221
82.1003	-0.000582976	0.703088
82.2678	-0.000608086	0.733315
82.4354	-0.000621792	0.749788
82.6029	-0.000623622	0.751941
82.7705	-0.000613612	0.739819
82.938	-0.000592295	0.714066
83.1056	-0.000560628	0.675836
83.2731	-0.000519868	0.626647
83.4407	-0.00047143	0.568207
83.6083	-0.000416749	0.502245
83.7758	-0.000357165	0.430376
83.9434	-0.000293848	0.354011
84.1109	-0.000227765	0.274315
84.2785	-0.000159681	0.19221
84.446	-9.01969e-05	0.10842
84.6136	-1.98008e-05	0.0235336
84.7811	5.10623e-05	-0.0619131
84.9487	0.00012192	-0.14735
85.1162	0.000192204	-0.232091
85.2838	0.000261189	-0.315262
85.4513	0.000327953	-0.39575
85.6189	0.000391359	-0.472183
85.7864	0.000450068	-0.542947
85.954	0.000502593	-0.606247
86.1215	0.000547389	-0.660222
86.2891	0.000582977	-0.703088
86.4566	0.000608086	-0.733315
86.6242	0.000621792	-0.749788
86.7917	0.000623622	-0.751941
86.9593	0.000613612	-0.739818
87.1268	0.000592295	-0.714065
87.2944	0.000560628	-0.675835
87.4619	0.000519868	-0.626647
87.6295	0.00047143	-0.568206
87.797	0.000416749	-0.502244
87.9646	0.000357165	-0.430375
88.1321	0.000293848	-0.354011
88.2997	0.000227765	-0.274315
88.4672	0.000159681	-0.19221
88.6348	9.01967e-05	-0.10842
88.8024	1.98006e-05	-0.0235332
88.9699	-5.10625e-05	0.0619134
89.1375	-0.00012192	0.14735
89.305	-0.000192204	0.232091
89.4726	-0.000261189	0.315262
89.6401	-0.000327953	0.39575
89.8077	-0.000391359	0.472183
89.9752	-0.000450068	0.542947
90.1428	-0.000502593	0.606247
90.3103	-0.000547389	0.660221
90.4779	-0.000582977	0.703088
90.6454	-0.000608087	0.733314
90.813	-0.000621792	0.749788
90.9805	-0.000623622	0.75194
91.1481	-0.000613612	0.739818
91.3156	-0.000592295	0.714065
91.4832	-0.000560628	0.675835
91.6507	-0.000519867	0.626646
91.8183	-0.000471429	0.568206
91.9858	-0.000416748	0.502244
92.1534	-0.000357165	0.430375
92.3209	-0.000293848	0.354011
92.4885	-0.000227765	0.274314
92.656	-0.000159681	0.19221
92.8236	-9.01965e-05	0.10842
92.9911	-1.98004e-05	0.0235331
93.1587	5.10628e-05	-0.0619135
93.3262	0.000121921	-0.14735
93.4938	0.000192204	-0.232091
93.6613	0.000261189	-0.315262
93.8289	0.000327954	-0.39575
93.9965	0.000391359	-0.472183
94.164	0.000450068	-0.542946
94.3316	0.000502593	-0.606247
94.4991	0.000547389	-0.660221
94.6667	0.000582977	-0.703087
94.8342	0.000608086	-0.733314
95.0018	0.000621792	-0.749787
95.1693	0.000623622	-0.75194
95.3369	0.000613612	-0.739817
95.5044	0.000592295	-0.714064
95.672	0.000560628	-0.675835
95.8395	0.000519867	-0.626646
96.0071	0.000471429	-0.568206
96.1746	0.000416748	-0.502244
96.3422	0.000357164	-0.430375
96.5097	0.000293848	-0.35401
96.6773	0.000227764	-0.274314
96.8448	0.000159681	-0.19221
97.0124	9.01963e-05	-0.10842
97.1799	1.98002e-05	-0.0235331
97.3475	-5.10629e-05	0.0619134
97.515	-0.000121921	0.14735
97.6826	-0.000192204	0.232091
97.8501	-0.000261189	0.315262
98.0177	-0.000327954	0.39575
98.1852	-0.000391359	0.472183
98.3528	-0.000450068	0.542946
98.5203	-0.000502593	0.606246
98.6879	-0.000547389	0.660221
98.8554	-0.000582977	0.703087
99.023	-0.000608086	0.733314
99.1906	-0.000621792	0.749787
99.3581	-0.000623622	0.75194
99.5257	-0.000613612	0.739817
99.6932	-0.000592295	0.714064
99.8608	-0.000560628	0.675835
100.028	-0.000519867	0.626646
100.196	-0.000471429	0.568206
100.363	-0.000416748	0.502243
100.531	-0.000357164	0.430375
100.699	-0.000293848	0.35401
100.866	-0.000227764	0.274314
101.034	-0.00015968	0.19221
101.201	-9.01962e-05	0.10842
101.369	-1.98001e-05	0.0235332
101.536	5.1063e-05	-0.0619134
101.704	0.000121921	-0.14735
101.871	0.000192204	-0.232091
102.039	0.000261189	-0.315262
102.206	0.000327954	-0.39575
102.374	0.000391359	-0.472183
102.542	0.000450068	-0.542946
102.709	0.000502593	-0.606246
102.877	0.000547389	-0.660221
103.044	0.000582977	-0.703087
103.212	0.000608086	-0.733314
103.379	0.000621792	-0.749787
103.547	0.000623622	-0.75194
103.714	0.000613612	-0.739817
103.882	0.000592295	-0.714064
104.05	0.000560628	-0.675835
104.217	0.000519867	-0.626646
104.385	0.000471429	-0.568206
104.552	0.000416748	-0.502243
104.72	0.000357164	-0.430375
104.887	0.000293848	-0.35401
105.055	0.000227764	-0.274314
105.222	0.00015968	-0.19221
105.39	9.01962e-05	-0.10842
105.558	1.98001e-05	-0.0235332
105.725	-5.1063e-05	0.0619134
105.893	-0.000121921	0.14735
106.06	-0.000192204	0.232091
106.228	-0.000261189	0.315262
106.395	-0.000327954	0.39575
106.563	-0.000391359	0.472183
106.73	-0.000450068	0.542946
106.898	-0.000502593	0.606246
107.065	-0.000547389	0.660221
107.233	-0.000582977	0.703087
107.401	-0.000608086	0.733314
107.568	-0.000621792	0.749787
107.736	-0.000623622	0.75194
107.903	-0.000613612	0.739817
108.071	-0.000592295	0.714064
108.238	-0.000560628	0.675835
108.406	-0.000519867	0.626646
108.573	-0.000471429	0.568206
108.741	-0.000416748	0.502243
108.909	-0.000357164	0.430375
109.076	-0.000293847	0.35401
109.244	-0.000227764	0.274314
109.411	-0.00015968	0.19221
109.579	-9.01962e-05	0.10842
109.746	-1.98001e-05	0.0235332
109.914	5.1063e-05	-0.0619134
110.081	0.000121921	-0.14735
110.249	0.000192204	-0.232091
110.417	0.000261189	-0.315262
110.584	0.000327954	-0.39575
110.752	0.000391359	-0.472183
110.919	0.000450068	-0.542946
111.087	0.000502593	-0.606246
111.254	0.000547389	-0.660221
111.422	0.000582977	-0.703087
111.589	0.000608086	-0.733314
111.757	0.000621792	-0.749787
111.924	0.000623622	-0.75194
112.092	0.000613612	-0.739817
112.26	0.000592295	-0.714064
112.427	0.000560628	-0.675835
