#t	omega	theta
0	0	0.75	0
0.167552	2.49415e-07	0.812394	0.131259
0.335103	1.96521e-06	0.847703	0.270721
0.502655	6.48484e-06	0.855328	0.413778
0.670206	1.49625e-05	0.835975	0.555835
0.837758	2.83479e-05	0.791455	0.692509
1.00531	4.73866e-05	0.724345	0.819792
1.17286	7.26354e-05	0.637594	0.934142
1.34041	0.000104483	0.53416	1.03252
1.50796	0.000143165	0.416751	1.11236
1.67552	0.000188759	0.287698	1.17153
1.84307	0.00024116	0.14896	1.20823
2.01062	0.000300029	0.00224257	1.221
2.17817	0.000364722	-0.150804	1.20863
2.34572	0.000434189	-0.30833	1.17021
2.51327	0.000506877	-0.468015	1.10518
2.68083	0.00058064	-0.626817	1.01342
2.84838	0.000652696	-0.780791	0.895402
3.01593	0.000719674	-0.925064	0.75232
3.18348	0.000777791	-1.05402	0.586265
3.35103	0.000823204	-1.1618	0.400297
3.51858	0.000852494	-1.24299	0.19843
3.68614	0.000863202	-1.29354	-0.0145175
3.85369	0.000854267	-1.3115	-0.233215
4.02124	0.00082621	-1.29742	-0.452212
4.18879	0.000780976	-1.25421	-0.666355
4.35634	0.000721493	-1.18654	-0.871134
4.52389	0.000651076	-1.09992	-1.06291
4.69145	0.000572854	-0.999814	-1.23897
4.859	0.000489359	-0.890914	-1.39746
5.02655	0.000402309	-0.776746	-1.53723
5.1941	0.000312573	-0.659558	-1.65758
5.36165	0.000220264	-0.540408	-1.75814
5.5292	0.000124888	-0.419369	-1.83857
5.69675	2.55278e-05	-0.295783	-1.89853
5.86431	-7.89858e-05	-0.168505	-1.93748
6.03186	-0.000189908	-0.0361392	-1.95471
6.19941	-0.000308418	0.102748	-1.94923
6.36696	-0.000435441	0.249414	-1.91984
6.53451	-0.000571445	0.404701	-1.86517
6.70206	-0.000716186	0.568756	-1.78374
6.86962	-0.000868384	0.740686	-1.67413
7.03717	-0.00102536	0.918157	-1.53522
7.20472	-0.00118265	1.09697	-1.36638
7.37227	-0.00133379	1.2708	-1.16789
7.53982	-0.00147041	1.43117	-0.941278
7.70737	-0.0015829	1.56813	-0.689609
7.87493	-0.00166177	1.67158	-0.417667
8.04248	-0.00169953	1.73321	-0.131801
8.21003	-0.00169261	1.74854	0.160541
8.37758	-0.00164234	1.71814	0.451577
8.54513	-0.00155478	1.64754	0.734044
8.71268	-0.00143911	1.54577	1.00193
8.88024	-0.00130559	1.42325	1.25088
9.04779	-0.00116361	1.28981	1.47826
9.21534	-0.00102052	1.15331	1.68293
9.38289	-0.000881165	1.01916	1.86487
9.55044	-0.000748067	0.890415	2.02476
9.71799	-0.000621884	0.768166	2.16362
9.88554	-0.000501923	0.652091	2.28252
10.0531	-0.000386614	0.540922	2.38241
10.2206	-0.000273879	0.432832	2.46396
10.3882	-0.000161387	0.325713	2.52751
10.5558	-4.67207e-05	0.217355	2.57304
10.7233	7.25253e-05	0.105563	2.60015
10.8909	0.000198684	-0.0117778	2.6081
11.0584	0.000333981	-0.136662	2.59579
11.226	0.000480486	-0.270923	2.56178
11.3935	0.000640041	-0.416173	2.50438
11.5611	0.000814107	-0.573681	2.42164
11.7286	0.0010035	-0.744157	2.31142
11.8962	0.00120795	-0.927388	2.17155
12.0637	0.00142546	-1.12169	2.00002
12.2313	0.00165142	-1.32317	1.79526
12.3988	0.0018777	-1.52493	1.5566
12.5664	0.00209204	-1.71655	1.28481
12.7339	0.00227834	-1.88423	0.982714
12.9015	0.00241854	-2.01241	0.655611
13.069	0.00249624	-2.0868	0.311364
13.2366	0.00250123	-2.09826	-0.0401519
13.4041	0.00243286	-2.04567	-0.388175
13.5717	0.00230039	-1.93642	-0.722487
13.7392	0.00212017	-1.78392	-1.03466
13.9068	0.00191096	-1.60378	-1.31874
14.0743	0.00168979	-1.41021	-1.57134
14.2419	0.00146956	-1.21394	-1.79116
14.4094	0.00125845	-1.02171	-1.97837
14.577	0.00106051	-0.836697	-2.13395
14.7445	0.000876739	-0.659485	-2.25919
14.9121	0.000706188	-0.48894	-2.35532
15.0796	0.000546781	-0.322954	-2.42329
15.2472	0.00039593	-0.158957	-2.46365
15.4147	0.000250917	0.00573864	-2.47652
15.5823	0.000109129	0.173716	-2.46155
15.7499	-3.17933e-05	0.347288	-2.41799
15.9174	-0.000173827	0.528312	-2.34475
16.085	-0.000318405	0.717932	-2.24047
16.2525	-0.00046617	0.916189	-2.10369
16.4201	-0.000616618	1.12145	-1.93306
16.5876	-0.000767627	1.32967	-1.72771
16.7552	-0.000914961	1.53367	-1.48771
16.9227	-0.00105198	1.72273	-1.2146
17.0903	-0.00116988	1.88307	-0.912018
17.2578	-0.00125888	1.99968	-0.586026
17.4254	-0.00131026	2.05954	-0.2451
17.5929	-0.00131883	2.05533	0.100539
17.7605	-0.00128458	1.98779	0.440097
17.928	-0.00121266	1.86552	0.763588
18.0956	-0.00111171	1.70229	1.06295
18.2631	-0.000991419	1.51316	1.33259
18.4307	-0.000860378	1.31139	1.56932
18.5982	-0.000724942	1.10664	1.77188
18.7658	-0.00058898	0.904739	1.94032
18.9333	-0.000454222	0.708237	2.07537
19.1009	-0.000320827	0.517324	2.17797
19.2684	-0.000187939	0.330678	2.24896
19.436	-5.41483e-05	0.146156	2.2889
19.6035	8.21746e-05	-0.0387066	2.29792
19.7711	0.000222619	-0.226328	2.27577
19.9386	0.000368509	-0.418772	2.22181
20.1062	0.000520655	-0.617429	2.13509
20.2737	0.000679031	-0.822606	2.01454
20.4413	0.000842338	-1.03298	1.85914
20.6088	0.00100748	-1.24494	1.66829
20.7764	0.00116902	-1.45191	1.44223
20.944	0.00131893	-1.64399	1.18258
21.1115	0.00144689	-1.8084	0.892865
21.2791	0.00154167	-1.93111	0.578906
21.4466	0.00159338	-1.99977	0.248771
21.6142	0.00159621	-2.00708	-0.0877822
21.7817	0.00155026	-1.95315	-0.420372
21.9493	0.00146158	-1.84555	-0.73928
22.1168	0.00134027	-1.69699	-1.03653
22.2844	0.00119772	-1.52185	-1.30646
22.4519	0.00104417	-1.3331	-1.54575
22.6195	0.000887293	-1.14047	-1.75298
22.787	0.000731829	-0.950102	-1.92806
22.9546	0.000579969	-0.76488	-2.07166
23.1221	0.000431987	-0.585312	-2.18469
23.2897	0.0002869	-0.41031	-2.26805
23.4572	0.000143001	-0.237873	-2.32233
23.6248	-1.74732e-06	-0.0655758	-2.34777
23.7923	-0.000149433	0.109086	-2.34418
23.9599	-0.000301976	0.288432	-2.31095
24.1274	-0.000460921	0.474352	-2.24715
24.295	-0.000627184	0.668012	-2.15156
24.4625	-0.000800685	0.869447	-2.02286
24.6301	-0.000979862	1.077	-1.85986
24.7976	-0.00116106	1.28664	-1.66183
24.9652	-0.00133797	1.49129	-1.42898
25.1327	-0.0015013	1.68051	-1.16295
25.3003	-0.00163934	1.84102	-0.867432
25.4678	-0.0017395	1.95853	-0.548425
25.6354	-0.00179108	2.02081	-0.214217
25.8029	-0.00178824	2.02112	0.125279
25.9705	-0.00173197	1.96042	0.459646
26.1381	-0.00162982	1.84712	0.779276
26.3056	-0.00149358	1.6945	1.07642
26.4732	-0.00133617	1.51714	1.34573
26.6407	-0.00116895	1.32787	1.58416
26.8083	-0.00100024	1.13615	1.79057
26.9758	-0.000835142	0.947758	1.96508
27.1434	-0.000675928	0.765281	2.10851
27.3109	-0.000522834	0.588985	2.22188
27.4785	-0.000374766	0.417623	2.30615
27.646	-0.000229881	0.249086	2.36198
27.8136	-8.59955e-05	0.0808787	2.38964
27.9811	5.91275e-05	-0.0895591	2.38896
28.1487	0.00020758	-0.264618	2.35937
28.3162	0.000361126	-0.446307	2.29992
28.4838	0.000520987	-0.635988	2.20936
28.6513	0.000687537	-0.834021	2.08633
28.8189	0.000859871	-1.03924	1.92948
28.9864	0.00103524	-1.24826	1.73786
29.154	0.00120847	-1.45481	1.51131
29.3215	0.00137153	-1.6492	1.25102
29.4891	0.00151375	-1.81859	0.96005
29.6566	0.00162303	-1.94845	0.643811
29.8242	0.00168822	-2.02541	0.310082
29.9917	0.00170209	-2.04082	-0.0314592
30.1593	0.0016636	-1.99347	-0.370283
30.3268	0.00157834	-1.8901	-0.696338
30.4944	0.00145673	-1.74323	-1.00123
30.6619	0.00131112	-1.56765	-1.2789
30.8295	0.00115292	-1.37702	-1.52572
30.997	0.000990922	-1.18183	-1.74009
31.1646	0.000830767	-0.988821	-1.92188
31.3322	0.000675266	-0.801305	-2.07176
31.4997	0.000525081	-0.620039	-2.19075
31.6673	0.000379437	-0.444055	-2.27984
31.8348	0.000236721	-0.271385	-2.33974
32.0024	9.49157e-05	-0.0995829	-2.37083
32.1699	-4.80976e-05	0.0739195	-2.37302
32.3375	-0.000194322	0.251544	-2.34583
32.505	-0.000345454	0.435339	-2.28838
32.6726	-0.000502666	0.626711	-2.19952
32.8401	-0.000666307	0.826056	-2.07792
33.0077	-0.000835473	1.03224	-1.92232
33.1752	-0.00100747	1.24192	-1.73181
33.3428	-0.00117722	1.44887	-1.50629
33.5103	-0.00133689	1.64345	-1.24698
33.6779	-0.00147606	1.81289	-0.956968
33.8454	-0.00158295	1.94277	-0.641682
34.013	-0.0016467	2.0198	-0.3089
34.1805	-0.00166025	2.0354	0.0317157
34.3481	-0.00162259	1.98838	0.369658
34.5156	-0.00153912	1.88543	0.694893
34.6832	-0.00142	1.73901	0.999038
34.8507	-0.0012772	1.56382	1.27604
35.0183	-0.00112184	1.37348	1.52224
35.1858	-0.00096247	1.17845	1.73604
35.3534	-0.000804565	0.985436	1.91726
35.5209	-0.000650855	0.797772	2.06656
35.6885	-0.000501964	0.616219	2.18494
35.856	-0.000357114	0.439825	2.27335
36.0236	-0.000214705	0.266633	2.33251
36.1911	-7.27424e-05	0.0942084	2.36274
36.3587	7.08648e-05	-0.0800019	2.36398
36.5263	0.000218084	-0.2584	2.3357
36.6938	0.000370566	-0.443005	2.27704
36.8614	0.000529416	-0.635174	2.18682
37.0289	0.000694881	-0.835225	2.06375
37.1965	0.000865909	-1.04191	1.90656
37.364	0.00103959	-1.25173	1.71442
37.5316	0.00121059	-1.45826	1.48728
37.6991	0.00137075	-1.65168	1.22648
37.8667	0.00150938	-1.81909	0.935248
38.0342	0.00161452	-1.94609	0.619153
38.2018	0.00167536	-2.01965	0.2861
38.3693	0.00168513	-2.03161	-0.0541837
38.5369	0.00164326	-1.9813	-0.391206
38.7044	0.00155564	-1.87583	-0.715031
38.872	0.00143278	-1.72788	-1.01743
39.0395	0.00128686	-1.55214	-1.2925
39.2071	0.00112902	-1.36203	-1.53676
39.3746	0.000967729	-1.16776	-1.7487
39.5422	0.000808364	-0.975829	-1.92821
39.7097	0.000653537	-0.789375	-2.07601
39.8773	0.000503773	-0.609038	-2.19308
40.0448	0.000358218	-0.433793	-2.28039
40.2124	0.000215215	-0.261647	-2.33862
40.3799	7.27264e-05	-0.0901499	-2.3681
40.5475	-7.13707e-05	0.0832524	-2.36872
40.715	-0.000219069	0.260958	-2.33996
40.8826	-0.000372041	0.444977	-2.28092
41.0501	-0.000531411	0.636663	-2.19042
41.2177	-0.000697441	0.836332	-2.06713
41.3852	-0.000869094	1.04274	-1.90978
41.5528	-0.00104347	1.25239	-1.71751
41.7204	-0.00121522	1.45887	-1.49027
41.8879	-0.00137618	1.65235	-1.22936
42.0555	-0.00151561	1.81994	-0.938006
42.223	-0.0016215	1.94721	-0.621748
42.3906	-0.00168297	2.02107	-0.288483
42.5581	-0.00169316	2.03331	0.0520625
42.7257	-0.00165147	1.98322	0.38939
42.8932	-0.00156378	1.87788	0.713549
43.0608	-0.00144066	1.72996	1.01629
43.2283	-0.00129433	1.55416	1.29171
43.3959	-0.00113602	1.36396	1.5363
43.5634	-0.000974268	1.16959	1.74855
43.731	-0.000814492	0.977555	1.92837
43.8985	-0.000659337	0.791027	2.07644
44.0661	-0.000509345	0.610651	2.19379
44.2336	-0.000363672	0.435404	2.28136
44.4012	-0.00022066	0.263293	2.33987
44.5687	-7.82718e-05	0.0918671	2.36963
44.7363	6.56198e-05	-0.0814321	2.37055
44.9038	0.000213014	-0.259007	2.3421
45.0714	0.000365593	-0.442878	2.2834
45.2389	0.000524496	-0.634409	2.19327
45.4065	0.000690009	-0.833938	2.07036
45.574	0.000861132	-1.04025	1.91343
45.7416	0.00103502	-1.24988	1.72158
45.9091	0.00120638	-1.45647	1.49475
46.0767	0.00136714	-1.65024	1.23422
46.2442	0.00150664	-1.81833	0.943181
46.4118	0.00161291	-1.94629	0.627137
46.5793	0.00167506	-2.02099	0.293957
46.7469	0.00168616	-2.03412	-0.0466503
46.9145	0.00164551	-1.98483	-0.384182
47.082	0.00155888	-1.88009	-0.708665
47.2496	0.00143672	-1.73255	-1.01181
47.4171	0.00129121	-1.5569	-1.28768
47.5847	0.00113357	-1.36664	-1.53272
47.7522	0.000972337	-1.17208	-1.74541
47.9198	0.000812963	-0.979787	-1.92562
48.0873	0.000658117	-0.792964	-2.07405
48.2549	0.000508363	-0.612288	-2.1917
48.4224	0.000362876	-0.436754	-2.27952
48.59	0.000220011	-0.264379	-2.33823
48.7575	7.77431e-05	-0.092714	-2.36815
48.9251	-6.60477e-05	0.0807966	-2.3692
49.0926	-0.000213353	0.258557	-2.34084
49.2602	-0.00036585	0.442588	-2.2822
49.4277	-0.00052467	0.634255	-2.1921
49.5953	-0.000690094	0.833892	-2.06921
49.7628	-0.000861114	1.04028	-1.91228
49.9304	-0.00103488	1.24996	-1.72042
50.0979	-0.00120609	1.45655	-1.49358
50.2655	-0.00136668	1.65028	-1.23304
50.433	-0.00150597	1.81827	-0.941999
50.6006	-0.00161202	1.94611	-0.625975
50.7681	-0.00167394	2.02065	-0.292838
50.9357	-0.00168486	2.03362	0.0476986
51.1032	-0.00164406	1.9842	0.385135
51.2708	-0.00155734	1.87937	0.709504
51.4383	-0.00143515	1.73178	1.01253
51.6059	-0.00128967	1.55613	1.28827
51.7734	-0.00113208	1.3659	1.53318
51.941	-0.000970908	1.17139	1.74575
52.1086	-0.000811597	0.979144	1.92585
52.2761	-0.000656802	0.792368	2.07418
52.4437	-0.000507083	0.61173	2.19172
52.6112	-0.000361607	0.436225	2.27946
52.7788	-0.000218731	0.263866	2.33808
52.9463	-7.64264e-05	0.0922075	2.36792
53.1139	6.74244e-05	-0.081308	2.36888
53.2814	0.000214813	-0.259083	2.34043
53.449	0.000367414	-0.443135	2.2817
53.6165	0.000526357	-0.634827	2.19151
53.7841	0.000691917	-0.834488	2.06852
53.9516	0.000863077	-1.04089	1.91149
54.1192	0.00103697	-1.25057	1.71953
54.2867	0.0012083	-1.45714	1.49259
54.4543	0.00136895	-1.6508	1.23195
54.6218	0.00150825	-1.81868	0.940834
54.7894	0.00161422	-1.94635	0.624755
54.9569	0.001676	-2.0207	0.291593
55.1245	0.00168671	-2.03347	-0.0489349
55.292	0.00164567	-1.98386	-0.38633
55.4596	0.0015587	-1.8789	-0.710631
55.6271	0.00143627	-1.73122	-1.01357
55.7947	0.00129059	-1.55553	-1.28921
55.9622	0.00113282	-1.36531	-1.53402
56.1298	0.00097152	-1.17084	-1.74649
56.2973	0.000812105	-0.978654	-1.92651
56.4649	0.000657228	-0.791946	-2.07476
56.6324	0.000507447	-0.611379	-2.19224
56.8	0.000361924	-0.435942	-2.27992
56.9675	0.000219013	-0.263647	-2.3385
57.1351	7.66824e-05	-0.0920466	-2.36831
57.3027	-6.71876e-05	0.0814162	-2.36924
57.4702	-0.000214591	0.259144	-2.34079
57.6378	-0.000367202	0.443154	-2.28205
57.8053	-0.000526153	0.63481	-2.19185
57.9729	-0.000691722	0.834443	-2.06887
58.1404	-0.000862895	1.04082	-1.91185
58.308	-0.00103681	1.2505	-1.7199
58.4755	-0.00120816	1.45706	-1.49297
58.6431	-0.00136885	1.65074	-1.23235
58.8106	-0.0015082	1.81865	-0.941238
58.9782	-0.00161423	1.94637	-0.625159
59.1457	-0.00167608	2.02078	-0.291988
59.3133	-0.00168685	2.03361	0.0485579
59.4808	-0.00164588	1.98405	0.385981
59.6484	-0.00155895	1.87912	0.710316
59.8159	-0.00143655	1.73146	1.01329
59.9835	-0.00129088	1.55578	1.28897
60.151	-0.00113312	1.36555	1.53383
60.3186	-0.000971816	1.17106	1.74634
60.4861	-0.000812395	0.97886	1.92639
60.6537	-0.000657513	0.792134	2.07467
60.8212	-0.00050773	0.611551	2.19218
60.9888	-0.000362208	0.4361	2.27989
61.1563	-0.000219303	0.263795	2.3385
61.3239	-7.69842e-05	0.0921873	2.36833
61.4914	6.6869e-05	-0.0812793	2.36929
61.659	0.00021425	-0.259008	2.34085
61.8265	0.000366834	-0.443017	2.28214
61.9941	0.000525755	-0.63467	2.19197
62.1616	0.000691289	-0.8343	2.06901
62.3292	0.000862426	-1.04068	1.91201
62.4967	0.0010363	-1.25035	1.72009
62.6643	0.00120763	-1.45692	1.49318
62.8319	0.00136829	-1.65062	1.23258
62.9994	0.00150764	-1.81856	0.941488
63.167	0.00161369	-1.94631	0.625423
63.3345	0.00167556	-2.02076	0.292259
63.5021	0.00168638	-2.03363	-0.0482876
63.6696	0.00164546	-1.98411	-0.385718
63.8372	0.00155859	-1.87922	-0.710067
64.0047	0.00143625	-1.73158	-1.01306
64.1723	0.00129063	-1.5559	-1.28876
64.3398	0.00113291	-1.36567	-1.53364
64.5074	0.000971636	-1.17118	-1.74617
64.6749	0.000812241	-0.978962	-1.92624
64.8425	0.000657381	-0.79222	-2.07453
65.01	0.000507612	-0.611621	-2.19206
65.1776	0.000362102	-0.436155	-2.27978
65.3451	0.000219206	-0.263835	-2.33839
65.5127	7.6892e-05	-0.0922137	-2.36823
65.6802	-6.69581e-05	0.0812655	-2.36919
65.8478	-0.000214338	0.259006	-2.34076
66.0153	-0.000366922	0.443025	-2.28205
66.1829	-0.000525843	0.634688	-2.19187
66.3504	-0.000691379	0.834325	-2.06891
66.518	-0.000862516	1.04071	-1.91191
66.6855	-0.00103639	1.25038	-1.71998
66.8531	-0.00120771	1.45696	-1.49306
67.0206	-0.00136837	1.65064	-1.23246
67.1882	-0.0015077	1.81857	-0.941364
67.3557	-0.00161374	1.94631	-0.625297
67.5233	-0.00167559	2.02074	-0.292135
67.6908	-0.00168639	2.0336	0.0484067
67.8584	-0.00164545	1.98406	0.38583
68.026	-0.00155856	1.87915	0.710168
68.1935	-0.00143621	1.73151	1.01315
68.3611	-0.00129058	1.55583	1.28884
68.5286	-0.00113285	1.3656	1.53371
68.6962	-0.00097158	1.17111	1.74623
68.8637	-0.000812184	0.978901	1.92628
69.0313	-0.000657323	0.792166	2.07457
69.1988	-0.000507554	0.611572	2.19209
69.3664	-0.000362042	0.43611	2.2798
69.5339	-0.000219143	0.263795	2.3384
69.7015	-7.68261e-05	0.0921764	2.36823
69.869	6.70284e-05	-0.0813007	2.36919
70.0366	0.000214414	-0.259039	2.34075
70.2041	0.000367005	-0.443058	2.28203
70.3717	0.000525933	-0.634721	2.19185
70.5392	0.000691477	-0.834358	2.06889
70.7068	0.000862623	-1.04074	1.91188
70.8743	0.00103651	-1.25042	1.71994
71.0419	0.00120784	-1.45699	1.49302
71.2094	0.0013685	-1.65067	1.23241
71.377	0.00150784	-1.81859	0.941314
71.5445	0.00161387	-1.94633	0.625244
71.7121	0.00167572	-2.02075	0.29208
71.8796	0.00168651	-2.03359	-0.0484623
72.0472	0.00164555	-1.98405	-0.385884
72.2147	0.00155865	-1.87913	-0.71022
72.3823	0.00143629	-1.73148	-1.0132
72.5498	0.00129065	-1.5558	-1.28888
72.7174	0.00113291	-1.36558	-1.53375
72.8849	0.00097163	-1.17109	-1.74626
73.0525	0.000812228	-0.978882	-1.92632
73.2201	0.000657361	-0.79215	-2.0746
73.3876	0.000507588	-0.611559	-2.19211
73.5552	0.000362074	-0.436101	-2.27982
73.7227	0.000219173	-0.263789	-2.33843
73.8903	7.68552e-05	-0.0921734	-2.36826
74.0578	-6.69997e-05	0.0813008	-2.36921
74.2254	-0.000214385	0.259037	-2.34078
74.3929	-0.000366975	0.443053	-2.28206
74.5605	-0.000525903	0.634713	-2.19188
74.728	-0.000691446	0.834348	-2.06891
74.8956	-0.000862591	1.04073	-1.9119
75.0631	-0.00103648	1.25041	-1.71997
75.2307	-0.0012078	1.45698	-1.49306
75.3982	-0.00136847	1.65066	-1.23245
75.5658	-0.00150781	1.81859	-0.941349
75.7333	-0.00161384	1.94632	-0.62528
75.9009	-0.0016757	2.02076	-0.292116
76.0684	-0.00168649	2.0336	0.0484275
76.236	-0.00164554	1.98406	0.385851
76.4035	-0.00155865	1.87915	0.71019
76.5711	-0.00143629	1.7315	1.01317
76.7386	-0.00129065	1.55582	1.28886
76.9062	-0.00113292	1.3656	1.53373
77.0737	-0.000971639	1.17111	1.74624
77.2413	-0.000812238	0.978899	1.9263
77.4088	-0.000657372	0.792165	2.07459
77.5764	-0.000507599	0.611573	2.1921
77.7439	-0.000362086	0.436113	2.27982
77.9115	-0.000219186	0.263799	2.33842
78.079	-7.68688e-05	0.0921829	2.36825
78.2466	6.6985e-05	-0.0812921	2.36921
78.4142	0.000214369	-0.259029	2.34077
78.5817	0.000366957	-0.443046	2.28206
78.7493	0.000525883	-0.634706	2.19188
78.9168	0.000691424	-0.834341	2.06892
79.0844	0.000862567	-1.04072	1.91191
79.2519	0.00103645	-1.2504	1.71998
79.4195	0.00120777	-1.45697	1.49306
79.587	0.00136844	-1.65065	1.23246
79.7546	0.00150778	-1.81858	0.941358
79.9221	0.00161381	-1.94632	0.62529
80.0897	0.00167567	-2.02075	0.292126
80.2572	0.00168646	-2.0336	-0.0484171
80.4248	0.00164552	-1.98407	-0.385841
