#t	omega	theta
0	0
0.0837758	2.02141e-08
0.167552	1.61145e-07
0.251327	5.39566e-07
0.335103	1.2665e-06
0.418879	2.44629e-06
0.502655	4.17584e-06
0.586431	6.54416e-06
0.670206	9.63213e-06
0.753982	1.35126e-05
0.837758	1.82506e-05
0.921534	2.3904e-05
1.00531	3.05241e-05
1.08909	3.81564e-05
1.17286	4.68412e-05
1.25664	5.66143e-05
1.34041	6.75078e-05
1.42419	7.95497e-05
1.50796	9.27648e-05
1.59174	0.000107174
1.67552	0.000122793
1.75929	0.000139634
1.84307	0.000157701
1.92684	0.000176992
2.01062	0.000197492
2.0944	0.000219178
2.17817	0.000242009
2.26195	0.00026593
2.34572	0.000290864
2.4295	0.000316708
2.51327	0.000343335
2.59705	0.000370586
2.68083	0.000398268
2.7646	0.000426151
2.84838	0.000453967
2.93215	0.000481407
3.01593	0.000508129
3.0997	0.000533752
3.18348	0.000557873
3.26726	0.000580068
3.35103	0.000599913
3.43481	0.000616996
3.51858	0.000630935
3.60236	0.000641402
3.68614	0.000648138
3.76991	0.000650972
3.85369	0.00064983
3.93746	0.000644744
4.02124	0.00063585
4.10501	0.00062338
4.18879	0.000607648
4.27257	0.000589029
4.35634	0.000567941
4.44012	0.000544819
4.52389	0.000520093
4.60767	0.000494175
4.69145	0.000467435
4.77522	0.0004402
4.859	0.00041274
4.94277	0.00038527
5.02655	0.000357947
5.11032	0.000330876
5.1941	0.000304111
5.27788	0.000277663
5.36165	0.000251505
5.44543	0.000225575
5.5292	0.000199788
5.61298	0.000174032
5.69675	0.000148181
5.78053	0.000122094
5.86431	9.56192e-05
5.94808	6.85962e-05
6.03186	4.08595e-05
6.11563	1.22394e-05
6.19941	-1.74372e-05
6.28319	-4.83451e-05
6.36696	-8.06609e-05
6.45074	-0.000114562
6.53451	-0.000150229
6.61829	-0.000187841
6.70206	-0.000227581
6.78584	-0.000269634
6.86962	-0.00031419
6.95339	-0.000361443
7.03717	-0.000411591
7.12094	-0.000464843
7.20472	-0.000521413
7.28849	-0.000581527
7.37227	-0.000645424
7.45605	-0.000713355
7.53982	-0.000785586
7.6236	-0.000862398
7.70737	-0.000944087
7.79115	-0.00103096
7.87493	-0.00112335
7.9587	-0.00122158
8.04248	-0.00132598
8.12625	-0.00143686
8.21003	-0.00155453
8.2938	-0.00167923
8.37758	-0.00181114
8.46136	-0.00195034
8.54513	-0.00209675
8.62891	-0.00225011
8.71268	-0.00240989
8.79646	-0.00257525
8.88024	-0.00274498
8.96401	-0.00291739
9.04779	-0.00309034
9.13156	-0.00326112
9.21534	-0.00342655
9.29911	-0.00358297
9.38289	-0.00372642
9.46667	-0.0038528
9.55044	-0.00395811
9.63422	-0.00403875
9.71799	-0.00409184
9.80177	-0.00411542
9.88554	-0.0041087
9.96932	-0.00407207
10.0531	-0.00400713
10.1369	-0.00391646
10.2206	-0.00380347
10.3044	-0.00367203
10.3882	-0.00352622
10.472	-0.00337008
10.5558	-0.00320738
10.6395	-0.00304149
10.7233	-0.00287528
10.8071	-0.00271113
10.8909	-0.00255089
10.9746	-0.00239594
11.0584	-0.00224725
11.1422	-0.00210546
11.226	-0.00197088
11.3097	-0.00184361
11.3935	-0.00172356
11.4773	-0.00161049
11.5611	-0.00150406
11.6448	-0.00140384
11.7286	-0.00130936
11.8124	-0.00122009
11.8962	-0.00113549
11.9799	-0.00105498
12.0637	-0.000978008
12.1475	-0.000904001
12.2313	-0.000832415
12.315	-0.000762731
12.3988	-0.000694472
12.4826	-0.000627222
12.5664	-0.000560636
12.6501	-0.000494467
12.7339	-0.000428574
12.8177	-0.000362939
12.9015	-0.000297667
12.9852	-0.000232989
13.069	-0.000169238
13.1528	-0.000106833
13.2366	-4.62385e-05
13.3204	1.20744e-05
13.4041	6.76665e-05
13.4879	0.000120168
13.5717	0.000169307
13.6555	0.000214923
13.7392	0.000256975
13.823	0.000295536
13.9068	0.000330776
13.9906	0.000362946
14.0743	0.000392356
14.1581	0.000419359
14.2419	0.000444323
14.3257	0.000467629
14.4094	0.00048965
14.4932	0.000510747
14.577	0.000531265
14.6608	0.000551529
14.7445	0.000571845
14.8283	0.000592499
14.9121	0.000613761
14.9959	0.000635888
15.0796	0.000659122
15.1634	0.000683698
15.2472	0.000709845
15.331	0.000737785
15.4147	0.00076774
15.4985	0.000799926
15.5823	0.000834561
15.6661	0.000871858
15.7499	0.000912025
15.8336	0.000955263
15.9174	0.00100176
16.0012	0.00105168
16.085	0.00110517
16.1687	0.00116231
16.2525	0.00122314
16.3363	0.00128762
16.4201	0.0013556
16.5038	0.0014268
16.5876	0.0015008
16.6714	0.00157698
16.7552	0.00165449
16.8389	0.00173227
16.9227	0.00180899
17.0065	0.00188311
17.0903	0.00195287
17.174	0.00201636
17.2578	0.00207164
17.3416	0.00211685
17.4254	0.00215034
17.5091	0.00217084
17.5929	0.00217756
17.6767	0.00217034
17.7605	0.00214962
17.8442	0.00211646
17.928	0.00207244
18.0118	0.00201956
18.0956	0.00196007
18.1793	0.00189631
18.2631	0.0018306
18.3469	0.00176509
18.4307	0.00170174
18.5145	0.00164223
18.5982	0.00158797
18.682	0.0015401
18.7658	0.00149951
18.8496	0.00146691
18.9333	0.00144281
19.0171	0.00142758
19.1009	0.00142151
19.1847	0.00142478
19.2684	0.00143754
19.3522	0.00145991
19.436	0.00149198
19.5198	0.00153386
19.6035	0.00158563
19.6873	0.00164743
19.7711	0.0017194
19.8549	0.00180168
19.9386	0.00189447
20.0224	0.00199796
20.1062	0.00211236
20.19	0.0022379
20.2737	0.00237477
20.3575	0.00252314
20.4413	0.00268314
20.5251	0.00285479
20.6088	0.00303797
20.6926	0.00323238
20.7764	0.00343747
20.8602	0.00365235
20.944	0.00387572
21.0277	0.00410576
21.1115	0.0043401
21.1953	0.00457567
21.2791	0.00480873
21.3628	0.00503483
21.4466	0.0052489
21.5304	0.00544539
21.6142	0.00561855
21.6979	0.00576269
21.7817	0.00587268
21.8655	0.00594427
21.9493	0.00597454
22.033	0.00596217
22.1168	0.00590761
22.2006	0.00581306
22.2844	0.00568226
22.3681	0.00552021
22.4519	0.00533269
22.5357	0.0051259
22.6195	0.00490601
22.7032	0.00467885
22.787	0.00444965
22.8708	0.00422292
22.9546	0.00400238
23.0383	0.00379101
23.1221	0.00359102
23.2059	0.00340402
23.2897	0.00323109
23.3734	0.00307285
23.4572	0.00292959
23.541	0.00280133
23.6248	0.00268792
23.7086	0.00258903
23.7923	0.00250429
23.8761	0.00243323
23.9599	0.00237538
24.0437	0.00233023
24.1274	0.00229728
24.2112	0.00227602
24.295	0.00226592
24.3788	0.00226644
24.4625	0.00227701
24.5463	0.00229701
24.6301	0.00232572
24.7139	0.00236233
24.7976	0.0024059
24.8814	0.0024553
24.9652	0.0025092
25.049	0.00256606
25.1327	0.00262406
25.2165	0.00268115
25.3003	0.00273503
25.3841	0.00278324
25.4678	0.00282323
25.5516	0.00285247
25.6354	0.00286863
25.7192	0.00286972
25.8029	0.0028543
25.8867	0.00282157
25.9705	0.0027715
26.0543	0.00270486
26.1381	0.00262313
26.2218	0.00252843
26.3056	0.00242332
26.3894	0.00231062
26.4732	0.00219323
26.5569	0.00207393
26.6407	0.00195528
26.7245	0.00183951
26.8083	0.00172849
26.892	0.00162373
26.9758	0.00152635
27.0596	0.0014372
27.1434	0.00135681
27.2271	0.00128553
27.3109	0.00122349
27.3947	0.00117073
27.4785	0.00112716
27.5622	0.00109265
27.646	0.00106702
27.7298	0.00105006
27.8136	0.00104158
27.8973	0.00104137
27.9811	0.00104927
28.0649	0.00106509
28.1487	0.00108872
28.2324	0.00112004
28.3162	0.00115895
28.4	0.00120539
28.4838	0.00125931
28.5675	0.00132066
28.6513	0.0013894
28.7351	0.00146546
28.8189	0.00154877
28.9027	0.00163916
28.9864	0.00173643
29.0702	0.00184023
29.154	0.00195009
29.2378	0.00206531
29.3215	0.00218498
29.4053	0.00230789
29.4891	0.00243248
29.5729	0.00255686
29.6566	0.00267873
29.7404	0.00279546
29.8242	0.0029041
29.908	0.00300153
29.9917	0.00308458
30.0755	0.00315025
30.1593	0.00319594
30.2431	0.00321964
30.3268	0.00322016
30.4106	0.00319724
30.4944	0.00315159
30.5782	0.00308481
30.6619	0.0029993
30.7457	0.002898
30.8295	0.00278418
30.9133	0.0026612
30.997	0.00253232
31.0808	0.00240051
31.1646	0.0022684
31.2484	0.00213817
31.3322	0.00201159
31.4159	0.00188998
31.4997	0.00177433
31.5835	0.00166529
31.6673	0.00156323
31.751	0.00146833
31.8348	0.0013806
31.9186	0.00129992
32.0024	0.00122611
32.0861	0.00115889
32.1699	0.00109798
32.2537	0.00104306
32.3375	0.000993836
32.4212	0.000949977
32.505	0.000911182
32.5888	0.000877153
32.6726	0.000847604
32.7563	0.000822255
32.8401	0.000800833
32.9239	0.000783064
33.0077	0.000768669
33.0914	0.000757355
33.1752	0.00074881
33.259	0.000742697
33.3428	0.000738639
33.4265	0.000736222
33.5103	0.000734983
33.5941	0.000734414
33.6779	0.000733964
33.7616	0.000733052
33.8454	0.000731082
33.9292	0.000727469
34.013	0.000721677
34.0968	0.000713248
34.1805	0.000701848
34.2643	0.000687294
34.3481	0.000669579
34.4319	0.000648879
34.5156	0.000625545
34.5994	0.000600076
34.6832	0.000573083
34.767	0.000545244
34.8507	0.000517259
34.9345	0.000489809
35.0183	0.000463522
35.1021	0.000438956
35.1858	0.000416585
35.2696	0.000396794
35.3534	0.000379888
35.4372	0.000366098
35.5209	0.000355593
35.6047	0.000348489
35.6885	0.000344865
35.7723	0.000344771
35.856	0.000348234
35.9398	0.000355271
36.0236	0.000365891
36.1074	0.000380101
36.1911	0.000397909
36.2749	0.000419327
36.3587	0.000444372
36.4425	0.000473068
36.5263	0.000505445
36.61	0.000541541
36.6938	0.000581398
36.7776	0.000625061
36.8614	0.000672575
36.9451	0.000723979
37.0289	0.000779305
37.1127	0.000838559
37.1965	0.00090172
37.2802	0.000968719
37.364	0.00103943
37.4478	0.00111362
37.5316	0.00119098
37.6153	0.00127104
37.6991	0.00135315
37.7829	0.00143649
37.8667	0.00152001
37.9504	0.0016024
38.0342	0.00168215
38.118	0.00175751
38.2018	0.00182657
38.2855	0.00188733
38.3693	0.00193785
38.4531	0.00197631
38.5369	0.00200121
38.6206	0.00201151
38.7044	0.00200669
38.7882	0.00198684
38.872	0.00195265
38.9557	0.00190534
39.0395	0.00184658
39.1233	0.00177832
39.2071	0.00170263
39.2909	0.00162162
39.3746	0.00153724
39.4584	0.00145127
39.5422	0.00136523
39.626	0.00128034
39.7097	0.0011976
39.7935	0.0011177
39.8773	0.00104115
39.9611	0.000968253
40.0448	0.00089916
40.1286	0.000833903
40.2124	0.000772421
40.2962	0.000714587
40.3799	0.000660229
40.4637	0.000609143
40.5475	0.00056111
40.6313	0.000515903
40.715	0.000473298
40.7988	0.000433072
40.8826	0.000395013
40.9664	0.000358919
41.0501	0.000324601
41.1339	0.000291881
41.2177	0.000260595
41.3015	0.000230592
41.3852	0.000201735
41.469	0.000173902
41.5528	0.000146987
41.6366	0.000120902
41.7204	9.55791e-05
41.8041	7.09763e-05
41.8879	4.70778e-05
41.9717	2.39002e-05
42.0555	1.49523e-06
42.1392	-2.00474e-05
42.223	-4.05997e-05
42.3068	-5.99976e-05
42.3906	-7.80466e-05
42.4743	-9.45316e-05
42.5581	-0.000109231
42.6419	-0.00012193
42.7257	-0.000132443
42.8094	-0.000140622
42.8932	-0.000146375
42.977	-0.000149665
43.0608	-0.000150517
43.1445	-0.000149004
43.2283	-0.000145243
43.3121	-0.000139375
43.3959	-0.000131555
43.4796	-0.000121935
43.5634	-0.000110657
43.6472	-9.78422e-05
43.731	-8.3586e-05
43.8147	-6.79584e-05
43.8985	-5.10021e-05
43.9823	-3.27346e-05
44.0661	-1.31507e-05
44.1498	7.77458e-06
44.2336	3.00828e-05
44.3174	5.38291e-05
44.4012	7.908e-05
44.485	0.00010591
44.5687	0.000134402
44.6525	0.000164643
44.7363	0.000196722
44.8201	0.000230735
44.9038	0.000266775
44.9876	0.000304939
45.0714	0.000345321
45.1552	0.000388013
45.2389	0.0004331
45.3227	0.000480658
45.4065	0.000530749
45.4903	0.000583412
45.574	0.000638658
45.6578	0.000696454
45.7416	0.000756712
45.8254	0.000819271
45.9091	0.000883876
45.9929	0.000950158
46.0767	0.00101761
46.1605	0.00108556
46.2442	0.00115318
46.328	0.00121942
46.4118	0.00128309
46.4956	0.00134279
46.5793	0.00139706
46.6631	0.00144436
46.7469	0.00148319
46.8307	0.00151221
46.9145	0.00153034
46.9982	0.00153685
47.082	0.00153147
47.1658	0.00151436
47.2496	0.00148615
47.3333	0.00144786
47.4171	0.00140084
47.5009	0.0013466
47.5847	0.00128674
47.6684	0.00122286
47.7522	0.00115643
47.836	0.00108874
47.9198	0.00102091
48.0035	0.000953829
48.0873	0.000888176
48.1711	0.000824451
48.2549	0.000762981
48.3386	0.000703957
48.4224	0.000647456
48.5062	0.000593464
48.59	0.000541906
48.6737	0.000492655
48.7575	0.000445553
48.8413	0.000400422
48.9251	0.000357074
49.0088	0.000315314
49.0926	0.000274951
49.1764	0.000235799
49.2602	0.00019768
49.3439	0.000160424
49.4277	0.000123875
49.5115	8.78905e-05
49.5953	5.23413e-05
49.6791	1.71164e-05
49.7628	-1.78751e-05
49.8466	-5.27004e-05
49.9304	-8.7398e-05
50.0142	-0.000121972
50.0979	-0.000156384
50.1817	-0.000190549
50.2655	-0.000224322
50.3493	-0.000257497
50.433	-0.000289796
50.5168	-0.000320874
50.6006	-0.000350316
50.6844	-0.000377655
50.7681	-0.000402384
50.8519	-0.00042399
50.9357	-0.000441983
51.0195	-0.000455936
51.1032	-0.000465522
51.187	-0.000470542
51.2708	-0.000470946
51.3546	-0.000466834
51.4383	-0.000458448
51.5221	-0.000446145
51.6059	-0.000430365
51.6897	-0.000411594
51.7734	-0.000390322
51.8572	-0.000367022
51.941	-0.000342116
52.0248	-0.000315968
52.1086	-0.000288871
52.1923	-0.000261049
52.2761	-0.000232658
52.3599	-0.000203795
52.4437	-0.000174505
52.5274	-0.000144789
52.6112	-0.000114612
52.695	-8.39148e-05
52.7788	-5.26149e-05
52.8625	-2.06156e-05
52.9463	1.21901e-05
53.0301	4.59165e-05
53.1139	8.06816e-05
53.1976	0.000116605
53.2814	0.000153807
53.3652	0.000192405
53.449	0.000232514
53.5327	0.000274243
53.6165	0.000317693
53.7003	0.000362954
53.7841	0.000410101
53.8678	0.000459186
53.9516	0.000510234
54.0354	0.000563227
54.1192	0.0006181
54.2029	0.000674718
54.2867	0.000732864
54.3705	0.000792217
54.4543	0.000852337
54.538	0.000912642
54.6218	0.000972396
54.7056	0.0010307
54.7894	0.00108651
54.8732	0.00113863
54.9569	0.00118579
55.0407	0.00122667
55.1245	0.00126002
55.2083	0.00128471
55.292	0.00129985
55.3758	0.00130488
55.4596	0.00129959
55.5434	0.00128418
55.6271	0.00125924
55.7109	0.00122568
55.7947	0.00118466
55.8785	0.00113749
55.9622	0.00108554
56.046	0.00103014
56.1298	0.000972517
56.2136	0.000913762
56.2973	0.000854784
56.3811	0.000796311
56.4649	0.000738895
56.5487	0.000682929
56.6324	0.000628667
56.7162	0.000576245
56.8	0.000525707
56.8838	0.000477022
56.9675	0.000430108
57.0513	0.00038484
57.1351	0.000341069
57.2189	0.000298628
57.3027	0.000257343
57.3864	0.000217037
57.4702	0.000177533
57.554	0.000138661
57.6378	0.000100258
57.7215	6.21694e-05
57.8053	2.42534e-05
57.8891	-1.36194e-05
57.9729	-5.15621e-05
58.0566	-8.96696e-05
58.1404	-0.000128013
58.2242	-0.000166637
58.308	-0.000205551
58.3917	-0.00024472
58.4755	-0.000284061
58.5593	-0.000323427
58.6431	-0.000362601
58.7268	-0.000401282
58.8106	-0.000439088
58.8944	-0.000475542
58.9782	-0.000510087
59.0619	-0.000542099
59.1457	-0.000570906
59.2295	-0.000595831
59.3133	-0.000616233
59.397	-0.000631558
59.4808	-0.000641383
59.5646	-0.000645462
59.6484	-0.000643744
59.7321	-0.00063638
59.8159	-0.00062371
59.8997	-0.000606229
59.9835	-0.000584541
60.0673	-0.00055931
60.151	-0.000531211
60.2348	-0.000500888
60.3186	-0.000468926
60.4024	-0.000435823
60.4861	-0.000401991
60.5699	-0.000367743
60.6537	-0.000333306
60.7375	-0.000298828
60.8212	-0.000264385
60.905	-0.000230001
60.9888	-0.000195649
61.0726	-0.000161271
61.1563	-0.000126779
61.2401	-9.20679e-05
61.3239	-5.70191e-05
61.4077	-2.15058e-05
61.4914	1.46032e-05
61.5752	5.14408e-05
61.659	8.91388e-05
61.7428	0.000127826
61.8265	0.000167628
61.9103	0.000208662
61.9941	0.000251038
62.0779	0.000294852
62.1616	0.000340186
62.2454	0.000387101
62.3292	0.000435627
62.413	0.000485758
62.4967	0.00053744
62.5805	0.000590556
62.6643	0.000644911
62.7481	0.000700214
62.8319	0.000756065
62.9156	0.000811933
62.9994	0.000867146
63.0832	0.000920888
63.167	0.0009722
63.2507	0.00102001
63.3345	0.00106315
63.4183	0.00110046
63.5021	0.00113079
63.5858	0.00115314
63.6696	0.00116674
63.7534	0.0011711
63.8372	0.00116605
63.9209	0.00115182
64.0047	0.00112895
64.0885	0.00109828
64.1723	0.00106086
64.256	0.00101787
64.3398	0.000970557
64.4236	0.000920096
64.5074	0.000867587
64.5911	0.000813989
64.6749	0.000760103
64.7587	0.000706567
64.8425	0.000653858
64.9262	0.000602314
65.01	0.000552148
65.0938	0.000503467
65.1776	0.000456298
65.2614	0.000410602
65.3451	0.000366292
65.4289	0.000323247
65.5127	0.000281321
65.5965	0.000240357
65.6802	0.000200187
65.764	0.000160642
65.8478	0.000121557
65.9316	8.27694e-05
66.0153	4.41236e-05
66.0991	5.47387e-06
66.1829	-3.33146e-05
66.2667	-7.23635e-05
66.3504	-0.000111779
66.4342	-0.000151646
66.518	-0.000192027
66.6018	-0.000232955
66.6855	-0.000274422
66.7693	-0.000316375
66.8531	-0.000358704
66.9369	-0.000401231
67.0206	-0.000443696
67.1044	-0.000485749
67.1882	-0.000526943
67.272	-0.000566731
67.3557	-0.000604471
67.4395	-0.000639445
67.5233	-0.000670883
67.6071	-0.000698011
67.6908	-0.000720091
67.7746	-0.000736488
67.8584	-0.000746717
67.9422	-0.000750493
68.026	-0.000747756
68.1097	-0.000738682
68.1935	-0.000723663
68.2773	-0.00070327
68.3611	-0.000678203
68.4448	-0.000649232
68.5286	-0.000617142
68.6124	-0.000582685
68.6962	-0.000546543
68.7799	-0.000509303
68.8637	-0.000471447
68.9475	-0.000433348
69.0313	-0.000395279
69.115	-0.000357421
69.1988	-0.000319874
69.2826	-0.000282673
69.3664	-0.000245803
69.4501	-0.000209204
69.5339	-0.000172788
69.6177	-0.000136445
69.7015	-0.000100051
69.7852	-6.34722e-05
69.869	-2.6569e-05
69.9528	1.07984e-05
70.0366	4.8769e-05
70.1203	8.74786e-05
70.2041	0.000127058
70.2879	0.00016763
70.3717	0.000209309
70.4555	0.000252196
70.5392	0.000296379
70.623	0.000341919
70.7068	0.000388856
70.7906	0.000437188
70.8743	0.000486869
70.9581	0.000537793
71.0419	0.00058978
71.1257	0.000642561
71.2094	0.000695759
71.2932	0.000748876
71.377	0.000801283
71.4608	0.000852213
71.5445	0.000900768
71.6283	0.000945943
71.7121	0.000986654
71.7959	0.0010218
71.8796	0.00105034
71.9634	0.00107133
72.0472	0.00108407
72.131	0.00108811
72.2147	0.00108332
72.2985	0.00106991
72.3823	0.00104841
72.4661	0.00101961
72.5498	0.00098449
72.6336	0.000944162
72.7174	0.000899764
72.8012	0.000852399
72.8849	0.000803079
72.9687	0.000752687
73.0525	0.000701959
73.1363	0.000651475
73.2201	0.000601672
73.3038	0.000552853
73.3876	0.000505206
73.4714	0.000458822
73.5552	0.000413718
73.6389	0.00036985
73.7227	0.00032713
73.8065	0.000285438
73.8903	0.000244633
73.974	0.000204559
74.0578	0.000165057
74.1416	0.000125963
74.2254	8.71154e-05
74.3091	4.8358e-05
74.3929	9.54039e-06
74.4767	-2.94785e-05
74.5605	-6.88293e-05
74.6442	-0.000108629
74.728	-0.00014898
74.8118	-0.000189962
74.8956	-0.000231633
74.9793	-0.000274016
75.0631	-0.000317096
75.1469	-0.00036081
75.2307	-0.00040503
75.3144	-0.00044956
75.3982	-0.000494115
75.482	-0.000538314
75.5658	-0.000581673
75.6496	-0.000623599
75.7333	-0.000663399
75.8171	-0.000700296
75.9009	-0.000733461
75.9847	-0.000762053
76.0684	-0.000785277
76.1522	-0.000802443
76.236	-0.000813023
76.3198	-0.000816706
76.4035	-0.000813425
76.4873	-0.000803366
76.5711	-0.00078695
76.6549	-0.000764796
76.7386	-0.000737662
76.8224	-0.000706386
76.9062	-0.000671821
76.99	-0.000634789
77.0737	-0.000596033
77.1575	-0.000556197
77.2413	-0.00051581
77.3251	-0.000475285
77.4088	-0.000434924
77.4926	-0.000394929
77.5764	-0.000355417
77.6602	-0.000316433
77.7439	-0.000277966
77.8277	-0.000239959
77.9115	-0.000202324
77.9953	-0.000164948
78.079	-0.000127702
78.1628	-9.04493e-05
78.2466	-5.30454e-05
78.3304	-1.53459e-05
78.4142	2.27925e-05
78.4979	6.15098e-05
78.5817	0.00010094
78.6655	0.000141211
78.7493	0.000182438
78.833	0.000224728
78.9168	0.000268167
79.0006	0.000312824
79.0844	0.000358739
79.1681	0.000405916
79.2519	0.000454314
79.3357	0.000503835
79.4195	0.000554308
79.5032	0.000605477
79.587	0.000656982
79.6708	0.000708348
79.7546	0.000758971
79.8383	0.000808119
79.9221	0.000854932
80.0059	0.000898447
80.0897	0.000937633
80.1734	0.000971439
80.2572	0.000998865
80.341	0.00101903
80.4248	0.00103127
80.5085	0.00103515
80.5923	0.00103057
80.6761	0.00101774
80.7599	0.000997152
80.8437	0.000969578
80.9274	0.00093596
81.0112	0.000897351
81.095	0.000854835
81.1788	0.00080946
81.2625	0.000762184
81.3463	0.000713843
81.4301	0.00066513
81.5139	0.000616592
81.5976	0.000568639
81.6814	0.000521551
81.7652	0.000475503
81.849	0.000430576
81.9327	0.000386781
82.0165	0.00034407
82.1003	0.000302355
82.1841	0.000261517
82.2678	0.000221418
82.3516	0.000181905
82.4354	0.000142821
82.5192	0.000104007
82.6029	6.5304e-05
82.6867	2.65596e-05
82.7705	-1.23735e-05
82.8543	-5.16337e-05
82.938	-9.13487e-05
83.0218	-0.000131633
83.1056	-0.000172586
83.1894	-0.000214285
83.2731	-0.000256784
83.3569	-0.000300102
83.4407	-0.000344219
83.5245	-0.000389064
83.6083	-0.000434501
83.692	-0.00048032
83.7758	-0.000526222
83.8596	-0.000571807
83.9434	-0.000616566
84.0271	-0.000659879
84.1109	-0.000701019
84.1947	-0.000739173
84.2785	-0.000773472
84.3622	-0.000803035
84.446	-0.000827027
84.5298	-0.000844722
84.6136	-0.000855566
