#t	omega	theta
0	0
0.167552	7.12613e-08
0.335103	5.61481e-07
0.502655	1.85262e-06
0.670206	4.27326e-06
0.837758	8.08992e-06
1.00531	1.35022e-05
1.17286	2.06402e-05
1.34041	2.95626e-05
1.50796	4.02542e-05
1.67552	5.26215e-05
1.84307	6.64872e-05
2.01062	8.1585e-05
2.17817	9.75557e-05
2.34572	0.000113948
2.51327	0.000130227
2.68083	0.000145792
2.84838	0.000160005
3.01593	0.000172226
3.18348	0.00018186
3.35103	0.000188397
3.51858	0.000191446
3.68614	0.000190759
3.85369	0.000186234
4.02124	0.000177904
4.18879	0.000165913
4.35634	0.000150486
4.52389	0.000131902
4.69145	0.000110467
4.859	8.65023e-05
5.02655	6.03403e-05
5.1941	3.23269e-05
5.36165	2.83432e-06
5.5292	-2.77248e-05
5.69675	-5.88833e-05
5.86431	-9.01095e-05
6.03186	-0.000120803
6.19941	-0.000150305
6.36696	-0.000177911
6.53451	-0.000202905
6.70206	-0.000224598
6.86962	-0.000242365
7.03717	-0.00025569
7.20472	-0.000264195
7.37227	-0.00026766
7.53982	-0.000266027
7.70737	-0.000259389
7.87493	-0.000247966
8.04248	-0.000232077
8.21003	-0.000212109
8.37758	-0.000188491
8.54513	-0.000161672
8.71268	-0.000132108
8.88024	-0.000100264
9.04779	-6.66072e-05
9.21534	-3.16245e-05
9.38289	4.17503e-06
9.55044	4.02488e-05
9.71799	7.60169e-05
9.88554	0.000110862
10.0531	0.000144138
10.2206	0.000175185
10.3882	0.000203352
10.5558	0.000228023
10.7233	0.000248647
10.8909	0.000264764
11.0584	0.000276029
11.226	0.000282229
11.3935	0.000283283
11.5611	0.000279241
11.7286	0.000270273
11.8962	0.000256649
12.0637	0.000238716
12.2313	0.000216883
12.3988	0.000191595
12.5664	0.000163325
12.7339	0.000132558
12.9015	9.97904e-05
13.069	6.55271e-05
13.2366	3.0282e-05
13.4041	-5.41937e-06
13.5717	-4.10375e-05
13.7392	-7.60193e-05
13.9068	-0.000109801
14.0743	-0.000141815
14.2419	-0.0001715
14.4094	-0.000198316
14.577	-0.00022176
14.7445	-0.000241386
14.9121	-0.00025682
15.0796	-0.000267778
15.2472	-0.000274072
15.4147	-0.000275623
15.5823	-0.000272456
15.7499	-0.000264695
15.9174	-0.000252558
16.085	-0.000236335
16.2525	-0.000216384
16.4201	-0.000193106
16.5876	-0.000166936
16.7552	-0.000138331
16.9227	-0.000107763
17.0903	-7.57085e-05
17.2578	-4.26489e-05
17.4254	-9.06826e-06
17.5929	2.45471e-05
17.7605	5.77085e-05
17.928	8.99261e-05
18.0956	0.000120711
18.2631	0.000149582
18.4307	0.000176069
18.5982	0.000199725
18.7658	0.000220141
18.9333	0.000236952
19.1009	0.000249856
19.2684	0.000258623
19.436	0.000263104
19.6035	0.00026324
19.7711	0.000259059
19.9386	0.000250679
20.1062	0.000238293
20.2737	0.000222171
20.4413	0.000202635
20.6088	0.000180056
20.7764	0.000154835
20.944	0.000127397
21.1115	9.81768e-05
21.2791	6.7617e-05
21.4466	3.61618e-05
21.6142	4.25593e-06
21.7817	-2.76554e-05
21.9493	-5.91266e-05
22.1168	-8.97111e-05
22.2844	-0.000118963
22.4519	-0.000146439
22.6195	-0.000171705
22.787	-0.000194344
22.9546	-0.000213964
23.1221	-0.000230213
23.2897	-0.00024279
23.4572	-0.000251457
23.6248	-0.00025605
23.7923	-0.000256489
23.9599	-0.000252775
24.1274	-0.000244999
24.295	-0.000233326
24.4625	-0.000217997
24.6301	-0.00019931
24.7976	-0.00017761
24.9652	-0.000153278
25.1327	-0.000126718
25.3003	-9.83454e-05
25.4678	-6.8586e-05
25.6354	-3.78669e-05
25.8029	-6.61719e-06
25.9705	2.47326e-05
26.1381	5.57493e-05
26.3056	8.59964e-05
26.4732	0.000115035
26.6407	0.000142424
26.8083	0.000167728
26.9758	0.000190525
27.1434	0.000210411
27.3109	0.000227022
27.4785	0.000240038
27.646	0.000249202
27.8136	0.000254332
27.9811	0.000255327
28.1487	0.000252171
28.3162	0.000244937
28.4838	0.000233779
28.6513	0.000218926
28.8189	0.000200666
28.9864	0.000179341
29.154	0.000155325
29.3215	0.000129018
29.4891	0.000100835
29.6566	7.1198e-05
29.8242	4.05347e-05
29.9917	9.27394e-06
30.1593	-2.21521e-05
30.3268	-5.33074e-05
30.4944	-8.37509e-05
30.6619	-0.000113037
30.8295	-0.000140718
30.997	-0.000166349
31.1646	-0.000189495
31.3322	-0.000209743
31.4997	-0.000226716
31.6673	-0.000240084
31.8348	-0.000249581
32.0024	-0.000255014
32.1699	-0.000256276
32.3375	-0.000253347
32.505	-0.000246297
32.6726	-0.00023528
32.8401	-0.000220523
33.0077	-0.000202317
33.1752	-0.000181005
33.3428	-0.000156964
33.5103	-0.000130597
33.6779	-0.000102321
33.8454	-7.25638e-05
34.013	-4.17543e-05
34.1805	-1.03262e-05
34.3481	2.12842e-05
34.5156	5.26358e-05
34.6832	8.32827e-05
34.8507	0.000112774
35.0183	0.000140655
35.1858	0.000166477
35.3534	0.000189799
35.5209	0.000210205
35.6885	0.000227312
35.856	0.000240788
36.0236	0.000250366
36.1911	0.000255854
36.3587	0.000257144
36.5263	0.000254218
36.6938	0.000247149
36.8614	0.000236091
37.0289	0.000221276
37.1965	0.000202999
37.364	0.000181603
37.5316	0.000157469
37.6991	0.000131003
37.8667	0.000102625
38.0342	7.2763e-05
38.2018	4.18499e-05
38.3693	1.03214e-05
38.5369	-2.13838e-05
38.7044	-5.28226e-05
38.872	-8.35466e-05
39.0395	-0.000113103
39.2071	-0.000141037
39.3746	-0.000166896
39.5422	-0.000190241
39.7097	-0.000210654
39.8773	-0.000227755
40.0448	-0.000241212
40.2124	-0.000250758
40.3799	-0.000256205
40.5475	-0.000257446
40.715	-0.000254466
40.8826	-0.000247339
41.0501	-0.000236222
41.2177	-0.000221348
41.3852	-0.000203013
41.5528	-0.000181562
41.7204	-0.000157378
41.8879	-0.000130865
42.0555	-0.000102446
42.223	-7.25489e-05
42.3906	-4.16077e-05
42.5581	-1.00583e-05
42.7257	2.16602e-05
42.8932	5.31044e-05
43.0608	8.3826e-05
43.2283	0.000113372
43.3959	0.000141289
43.5634	0.000167124
43.731	0.000190439
43.8985	0.000210819
44.0661	0.000227882
44.2336	0.0002413
44.4012	0.000250807
44.5687	0.000256215
44.7363	0.000257419
44.9038	0.000254405
45.0714	0.000247247
45.2389	0.000236103
45.4065	0.000221206
45.574	0.000202853
45.7416	0.000181389
45.9091	0.000157195
46.0767	0.000130679
46.2442	0.000102259
46.4118	7.23666e-05
46.5793	4.14336e-05
46.7469	9.89599e-06
46.9145	-2.18073e-05
47.082	-5.32333e-05
47.2496	-8.39343e-05
47.4171	-0.000113458
47.5847	-0.000141351
47.7522	-0.000167162
47.9198	-0.000190453
48.0873	-0.00021081
48.2549	-0.000227852
48.4224	-0.00024125
48.59	-0.00025074
48.7575	-0.000256134
48.9251	-0.000257327
49.0926	-0.000254305
49.2602	-0.000247142
49.4277	-0.000235996
49.5953	-0.0002211
49.7628	-0.00020275
49.9304	-0.000181291
50.0979	-0.000157105
50.2655	-0.000130597
50.433	-0.000102188
50.6006	-7.23064e-05
50.7681	-4.13854e-05
50.9357	-9.86038e-06
51.1032	2.18301e-05
51.2708	5.32435e-05
51.4383	8.39323e-05
51.6059	0.000113445
51.7734	0.000141327
51.941	0.000167129
52.1086	0.000190413
52.2761	0.000210763
52.4437	0.000227801
52.6112	0.000241197
52.7788	0.000250687
52.9463	0.000256081
53.1139	0.000257277
53.2814	0.000254258
53.449	0.0002471
53.6165	0.000235959
53.7841	0.00022107
53.9516	0.000202726
54.1192	0.000181274
54.2867	0.000157094
54.4543	0.000130592
54.6218	0.00010219
54.7894	7.23141e-05
54.9569	4.13986e-05
55.1245	9.87844e-06
55.292	-2.18079e-05
55.4596	-5.32179e-05
55.6271	-8.39042e-05
55.7947	-0.000113415
55.9622	-0.000141297
56.1298	-0.000167099
56.2973	-0.000190384
56.4649	-0.000210737
56.6324	-0.000227777
56.8	-0.000241177
56.9675	-0.00025067
57.1351	-0.000256069
57.3027	-0.000257268
57.4702	-0.000254254
57.6378	-0.0002471
57.8053	-0.000235963
57.9729	-0.000221077
58.1404	-0.000202736
58.308	-0.000181287
58.4755	-0.000157109
58.6431	-0.00013061
58.8106	-0.000102208
58.9782	-7.23338e-05
59.1457	-4.14187e-05
59.3133	-9.89848e-06
59.4808	2.17884e-05
59.6484	5.31995e-05
59.8159	8.38873e-05
59.9835	0.0001134
60.151	0.000141284
60.3186	0.000167089
60.4861	0.000190377
60.6537	0.000210732
60.8212	0.000227775
60.9888	0.000241177
61.1563	0.000250673
61.3239	0.000256074
61.4914	0.000257276
61.659	0.000254263
61.8265	0.00024711
61.9941	0.000235974
62.1616	0.000221089
62.3292	0.000202749
62.4967	0.000181299
62.6643	0.000157122
62.8319	0.000130622
62.9994	0.00010222
63.167	7.23442e-05
63.3345	4.14279e-05
63.5021	9.90644e-06
63.6696	-2.17819e-05
63.8372	-5.31944e-05
64.0047	-8.38838e-05
64.1723	-0.000113398
64.3398	-0.000141283
64.5074	-0.00016709
64.6749	-0.000190379
64.8425	-0.000210735
65.01	-0.000227779
65.1776	-0.000241182
65.3451	-0.000250679
65.5127	-0.00025608
65.6802	-0.000257282
65.8478	-0.00025427
66.0153	-0.000247116
66.1829	-0.00023598
66.3504	-0.000221095
66.518	-0.000202754
66.6855	-0.000181304
66.8531	-0.000157126
67.0206	-0.000130625
67.1882	-0.000102222
67.3557	-7.23457e-05
67.5233	-4.14287e-05
67.6908	-9.90642e-06
67.8584	2.17826e-05
68.026	5.31958e-05
68.1935	8.38858e-05
68.3611	0.0001134
68.5286	0.000141286
68.6962	0.000167093
68.8637	0.000190382
69.0313	0.000210739
69.1988	0.000227783
69.3664	0.000241186
69.5339	0.000250682
69.7015	0.000256083
69.869	0.000257284
70.0366	0.000254271
70.2041	0.000247118
70.3717	0.000235981
70.5392	0.000221095
70.7068	0.000202754
70.8743	0.000181304
71.0419	0.000157125
71.2094	0.000130624
71.377	0.000102221
71.5445	7.23441e-05
71.7121	4.14269e-05
71.8796	9.90444e-06
72.0472	-2.17847e-05
72.2147	-5.31979e-05
72.3823	-8.38879e-05
72.5498	-0.000113403
72.7174	-0.000141288
72.8849	-0.000167095
73.0525	-0.000190384
73.2201	-0.00021074
73.3876	-0.000227784
73.5552	-0.000241186
73.7227	-0.000250682
73.8903	-0.000256083
74.0578	-0.000257284
74.2254	-0.000254271
74.3929	-0.000247117
74.5605	-0.000235981
74.728	-0.000221094
74.8956	-0.000202753
75.0631	-0.000181302
75.2307	-0.000157124
75.3982	-0.000130622
75.5658	-0.000102219
75.7333	-7.23427e-05
75.9009	-4.14255e-05
76.0684	-9.90321e-06
76.236	2.17858e-05
76.4035	5.31989e-05
76.5711	8.38887e-05
76.7386	0.000113403
76.9062	0.000141289
77.0737	0.000167095
77.2413	0.000190384
77.4088	0.00021074
77.5764	0.000227783
77.7439	0.000241186
77.9115	0.000250682
78.079	0.000256082
78.2466	0.000257284
78.4142	0.00025427
78.5817	0.000247116
78.7493	0.00023598
78.9168	0.000221093
79.0844	0.000202752
79.2519	0.000181302
79.4195	0.000157123
79.587	0.000130622
79.7546	0.000102219
79.9221	7.23422e-05
80.0897	4.14252e-05
80.2572	9.90294e-06
80.4248	-2.1786e-05
80.5923	-5.3199e-05
80.7599	-8.38887e-05
80.9274	-0.000113403
81.095	-0.000141288
81.2625	-0.000167095
81.4301	-0.000190384
81.5976	-0.000210739
81.7652	-0.000227783
81.9327	-0.000241185
82.1003	-0.000250681
82.2678	-0.000256082
82.4354	-0.000257283
82.6029	-0.00025427
82.7705	-0.000247116
82.938	-0.000235979
83.1056	-0.000221093
83.2731	-0.000202752
83.4407	-0.000181301
83.6083	-0.000157123
83.7758	-0.000130622
83.9434	-0.000102219
84.1109	-7.23423e-05
84.2785	-4.14253e-05
84.446	-9.90308e-06
84.6136	2.17858e-05
84.7811	5.31988e-05
84.9487	8.38885e-05
85.1162	0.000113403
85.2838	0.000141288
85.4513	0.000167095
85.6189	0.000190383
85.7864	0.000210739
85.954	0.000227783
86.1215	0.000241185
86.2891	0.000250681
86.4566	0.000256082
86.6242	0.000257283
86.7917	0.00025427
86.9593	0.000247116
87.1268	0.00023598
87.2944	0.000221093
87.4619	0.000202752
87.6295	0.000181302
87.797	0.000157123
87.9646	0.000130622
88.1321	0.000102219
88.2997	7.23424e-05
88.4672	4.14254e-05
88.6348	9.90323e-06
88.8024	-2.17857e-05
88.9699	-5.31987e-05
89.1375	-8.38883e-05
89.305	-0.000113403
89.4726	-0.000141288
89.6401	-0.000167094
89.8077	-0.000190383
89.9752	-0.000210739
90.1428	-0.000227783
90.3103	-0.000241185
90.4779	-0.000250681
90.6454	-0.000256082
90.813	-0.000257283
90.9805	-0.00025427
91.1481	-0.000247116
91.3156	-0.00023598
91.4832	-0.000221093
91.6507	-0.000202752
91.8183	-0.000181302
91.9858	-0.000157123
92.1534	-0.000130622
92.3209	-0.000102219
92.4885	-7.23425e-05
92.656	-4.14255e-05
92.8236	-9.90329e-06
92.9911	2.17856e-05
93.1587	5.31986e-05
93.3262	8.38883e-05
93.4938	0.000113403
93.6613	0.000141288
93.8289	0.000167094
93.9965	0.000190383
94.164	0.000210739
94.3316	0.000227783
94.4991	0.000241185
94.6667	0.000250681
94.8342	0.000256082
95.0018	0.000257283
95.1693	0.00025427
95.3369	0.000247116
95.5044	0.00023598
95.672	0.000221093
95.8395	0.000202752
96.0071	0.000181302
96.1746	0.000157123
96.3422	0.000130622
96.5097	0.000102219
96.6773	7.23425e-05
96.8448	4.14255e-05
97.0124	9.90329e-06
97.1799	-2.17856e-05
97.3475	-5.31986e-05
97.515	-8.38883e-05
97.6826	-0.000113403
97.8501	-0.000141288
98.0177	-0.000167094
98.1852	-0.000190383
98.3528	-0.000210739
98.5203	-0.000227783
98.6879	-0.000241185
98.8554	-0.000250681
99.023	-0.000256082
99.1906	-0.000257283
99.3581	-0.00025427
99.5257	-0.000247116
99.6932	-0.00023598
99.8608	-0.000221093
100.028	-0.000202752
100.196	-0.000181302
100.363	-0.000157123
100.531	-0.000130622
100.699	-0.000102219
100.866	-7.23425e-05
101.034	-4.14255e-05
101.201	-9.90327e-06
101.369	2.17856e-05
101.536	5.31987e-05
101.704	8.38883e-05
101.871	0.000113403
102.039	0.000141288
102.206	0.000167094
102.374	0.000190383
102.542	0.000210739
102.709	0.000227783
102.877	0.000241185
103.044	0.000250681
103.212	0.000256082
103.379	0.000257283
103.547	0.00025427
103.714	0.000247116
103.882	0.00023598
104.05	0.000221093
104.217	0.000202752
104.385	0.000181302
104.552	0.000157123
104.72	0.000130622
104.887	0.000102219
105.055	7.23425e-05
105.222	4.14255e-05
105.39	9.90326e-06
105.558	-2.17856e-05
105.725	-5.31987e-05
105.893	-8.38883e-05
106.06	-0.000113403
106.228	-0.000141288
106.395	-0.000167094
106.563	-0.000190383
106.73	-0.000210739
106.898	-0.000227783
107.065	-0.000241185
107.233	-0.000250681
107.401	-0.000256082
107.568	-0.000257283
107.736	-0.00025427
107.903	-0.000247116
108.071	-0.00023598
108.238	-0.000221093
108.406	-0.000202752
108.573	-0.000181302
108.741	-0.000157123
108.909	-0.000130622
109.076	-0.000102219
109.244	-7.23425e-05
109.411	-4.14255e-05
109.579	-9.90326e-06
109.746	2.17856e-05
109.914	5.31987e-05
110.081	8.38883e-05
110.249	0.000113403
110.417	0.000141288
110.584	0.000167094
110.752	0.000190383
110.919	0.000210739
111.087	0.000227783
111.254	0.000241185
111.422	0.000250681
111.589	0.000256082
111.757	0.000257283
111.924	0.00025427
112.092	0.000247116
112.26	0.00023598
112.427	0.000221093
112.595	0.000202752
112.762	0.000181302
112.93	0.000157123
113.097	0.000130622
113.265	0.000102219
113.432	7.23425e-05
113.6	4.14255e-05
113.768	9.90326e-06
113.935	-2.17856e-05
114.103	-5.31987e-05
114.27	-8.38883e-05
114.438	-0.000113403
114.605	-0.000141288
114.773	-0.000167094
114.94	-0.000190383
115.108	-0.000210739
115.276	-0.000227783
115.443	-0.000241185
115.611	-0.000250681
115.778	-0.000256082
115.946	-0.000257283
116.113	-0.00025427
116.281	-0.000247116
116.448	-0.00023598
116.616	-0.000221093
116.783	-0.000202752
116.951	-0.000181302
117.119	-0.000157123
117.286	-0.000130622
117.454	-0.000102219
117.621	-7.23425e-05
117.789	-4.14255e-05
117.956	-9.90326e-06
118.124	2.17856e-05
118.291	5.31987e-05
118.459	8.38883e-05
118.627	0.000113403
118.794	0.000141288
118.962	0.000167094
119.129	0.000190383
119.297	0.000210739
119.464	0.000227783
119.632	0.000241185
119.799	0.000250681
119.967	0.000256082
120.135	0.000257283
120.302	0.00025427
120.47	0.000247116
120.637	0.00023598
120.805	0.000221093
120.972	0.000202752
121.14	0.000181302
121.307	0.000157123
121.475	0.000130622
121.642	0.000102219
121.81	7.23425e-05
121.978	4.14255e-05
122.145	9.90326e-06
122.313	-2.17856e-05
122.48	-5.31987e-05
122.648	-8.38883e-05
122.815	-0.000113403
122.983	-0.000141288
123.15	-0.000167094
123.318	-0.000190383
123.486	-0.000210739
123.653	-0.000227783
123.821	-0.000241185
123.988	-0.000250681
124.156	-0.000256082
124.323	-0.000257283
124.491	-0.00025427
124.658	-0.000247116
124.826	-0.00023598
124.993	-0.000221093
125.161	-0.000202752
125.329	-0.000181302
125.496	-0.000157123
125.664	-0.000130622
125.831	-0.000102219
125.999	-7.23425e-05
126.166	-4.14255e-05
126.334	-9.90326e-06
126.501	2.17856e-05
126.669	5.31987e-05
126.837	8.38883e-05
127.004	0.000113403
127.172	0.000141288
127.339	0.000167094
127.507	0.000190383
127.674	0.000210739
127.842	0.000227783
128.009	0.000241185
128.177	0.000250681
128.345	0.000256082
128.512	0.000257283
128.68	0.00025427
128.847	0.000247116
129.015	0.00023598
129.182	0.000221093
129.35	0.000202752
129.517	0.000181302
129.685	0.000157123
129.852	0.000130622
130.02	0.000102219
130.188	7.23425e-05
130.355	4.14255e-05
130.523	9.90326e-06
130.69	-2.17856e-05
130.858	-5.31987e-05
131.025	-8.38883e-05
131.193	-0.000113403
131.36	-0.000141288
131.528	-0.000167094
131.696	-0.000190383
131.863	-0.000210739
132.031	-0.000227783
132.198	-0.000241185
132.366	-0.000250681
132.533	-0.000256082
132.701	-0.000257283
132.868	-0.00025427
133.036	-0.000247116
133.204	-0.00023598
133.371	-0.000221093
133.539	-0.000202752
133.706	-0.000181302
133.874	-0.000157123
134.041	-0.000130622
134.209	-0.000102219
134.376	-7.23425e-05
134.544	-4.14255e-05
134.711	-9.90326e-06
134.879	2.17856e-05
135.047	5.31987e-05
135.214	8.38883e-05
135.382	0.000113403
135.549	0.000141288
135.717	0.000167094
135.884	0.000190383
136.052	0.000210739
136.219	0.000227783
136.387	0.000241185
136.555	0.000250681
136.722	0.000256082
136.89	0.000257283
137.057	0.00025427
137.225	0.000247116
137.392	0.00023598
137.56	0.000221093
137.727	0.000202752
137.895	0.000181302
138.063	0.000157123
138.23	0.000130622
138.398	0.000102219
138.565	7.23425e-05
138.733	4.14255e-05
138.9	9.90326e-06
139.068	-2.17856e-05
139.235	-5.31987e-05
139.403	-8.38883e-05
139.57	-0.000113403
139.738	-0.000141288
139.906	-0.000167094
140.073	-0.000190383
140.241	-0.000210739
140.408	-0.000227783
140.576	-0.000241185
140.743	-0.000250681
140.911	-0.000256082
141.078	-0.000257283
141.246	-0.00025427
141.414	-0.000247116
141.581	-0.00023598
141.749	-0.000221093
141.916	-0.000202752
142.084	-0.000181302
142.251	-0.000157123
142.419	-0.000130622
142.586	-0.000102219
142.754	-7.23425e-05
142.922	-4.14255e-05
143.089	-9.90326e-06
143.257	2.17856e-05
143.424	5.31987e-05
143.592	8.38883e-05
143.759	0.000113403
143.927	0.000141288
144.094	0.000167094
144.262	0.000190383
144.429	0.000210739
144.597	0.000227783
144.765	0.000241185
144.932	0.000250681
145.1	0.000256082
145.267	0.000257283
145.435	0.00025427
145.602	0.000247116
145.77	0.00023598
145.937	0.000221093
146.105	0.000202752
146.273	0.000181302
146.44	0.000157123
146.608	0.000130622
146.775	0.000102219
146.943	7.23425e-05
147.11	4.14255e-05
147.278	9.90326e-06
147.445	-2.17856e-05
147.613	-5.31987e-05
147.781	-8.38883e-05
147.948	-0.000113403
148.116	-0.000141288
148.283	-0.000167094
148.451	-0.000190383
148.618	-0.000210739
148.786	-0.000227783
148.953	-0.000241185
149.121	-0.000250681
149.288	-0.000256082
149.456	-0.000257283
149.624	-0.00025427
149.791	-0.000247116
149.959	-0.00023598
150.126	-0.000221093
150.294	-0.000202752
150.461	-0.000181302
150.629	-0.000157123
150.796	-0.000130622
150.964	-0.000102219
151.132	-7.23425e-05
151.299	-4.14255e-05
151.467	-9.90326e-06
151.634	2.17856e-05
151.802	5.31987e-05
151.969	8.38883e-05
152.137	0.000113403
152.304	0.000141288
152.472	0.000167094
152.64	0.000190383
152.807	0.000210739
152.975	0.000227783
153.142	0.000241185
153.31	0.000250681
153.477	0.000256082
153.645	0.000257283
153.812	0.00025427
153.98	0.000247116
154.147	0.00023598
154.315	0.000221093
154.483	0.000202752
154.65	0.000181302
154.818	0.000157123
154.985	0.000130622
155.153	0.000102219
155.32	7.23425e-05
155.488	4.14255e-05
155.655	9.90326e-06
155.823	-2.17856e-05
155.991	-5.31987e-05
156.158	-8.38883e-05
156.326	-0.000113403
156.493	-0.000141288
156.661	-0.000167094
156.828	-0.000190383
156.996	-0.000210739
157.163	-0.000227783
157.331	-0.000241185
157.499	-0.000250681
157.666	-0.000256082
157.834	-0.000257283
158.001	-0.00025427
158.169	-0.000247116
158.336	-0.00023598
158.504	-0.000221093
158.671	-0.000202752
158.839	-0.000181302
159.006	-0.000157123
159.174	-0.000130622
159.342	-0.000102219
159.509	-7.23425e-05
159.677	-4.14255e-05
159.844	-9.90326e-06
160.012	2.17856e-05
160.179	5.31987e-05
160.347	8.38883e-05
160.514	0.000113403
160.682	0.000141288
160.85	0.000167094
161.017	0.000190383
161.185	0.000210739
161.352	0.000227783
161.52	0.000241185
161.687	0.000250681
161.855	0.000256082
162.022	0.000257283
162.19	0.00025427
162.358	0.000247116
162.525	0.00023598
162.693	0.000221093
162.86	0.000202752
163.028	0.000181302
163.195	0.000157123
163.363	0.000130622
163.53	0.000102219
163.698	7.23425e-05
163.865	4.14255e-05
164.033	9.90326e-06
164.201	-2.17856e-05
164.368	-5.31987e-05
164.536	-8.38883e-05
164.703	-0.000113403
164.871	-0.000141288
